#####################################################################
#  MagAO-X Filter Curve
#
# magaox_sci2-ch4-cont_bs-65-35_scibs-5050_atm.dat
#
# Science CH4 Continuum bandpass with 65/35 B/S, with atmosphere
#
# Characteristics:
#    lambda_0:  9.23317e-07 [central wavelength, in m]
#    w_eff:     2.26163e-08 [effective width, in m]
#    FWHM:      2.37162e-08 [full-width at half max., in m]
#    Trans_max: 0.0373223 [maximum transmission]
#
# Vega Zero Point Flux Densities (calculated):
#    f_lambda_0: 0.00806661 [W/m^3 above atm]
#    f_nu_0:     2293.09 [Jy above atm]
#    f_phot_0:   3.74864e+16 [photons/s/m^3 above atm]
#
# Vega Zero Point Fluxes (calculated):
#    F_W_0: 5.54469e-09 [W at telescope aperture]
#    F_phot_0:   9.61676e+08 [photons/s at detector]
#
#####################################################################
# lambda [m]             transmission
#-------------------------------------------------
  9.016e-07          0
  9.017e-07          8.88329e-08
  9.018e-07          1.99363e-07
  9.019e-07          3.31575e-07
  9.02e-07          4.85489e-07
  9.021e-07          6.08681e-07
  9.022e-07          7.326e-07
  9.023e-07          9.32984e-06
  9.024e-07          1.79802e-05
  9.025e-07          2.66837e-05
  9.026e-07          3.54404e-05
  9.027e-07          4.41983e-05
  9.028e-07          5.29885e-05
  9.029e-07          6.18108e-05
  9.03e-07          7.50205e-05
  9.031e-07          8.81152e-05
  9.032e-07          0.00010121
  9.033e-07          0.000114303
  9.034e-07          0.000127463
  9.035e-07          0.000140636
  9.036e-07          0.000153822
  9.037e-07          0.0001743
  9.038e-07          0.000194808
  9.039e-07          0.00021534
  9.04e-07          0.000225694
  9.041e-07          0.000234784
  9.042e-07          0.000243777
  9.043e-07          0.00025267
  9.044e-07          0.000261498
  9.045e-07          0.000270229
  9.046e-07          0.00028169
  9.047e-07          0.000293027
  9.048e-07          0.000303764
  9.049e-07          0.000314342
  9.05e-07          0.000324761
  9.051e-07          0.000338269
  9.052e-07          0.000352157
  9.053e-07          0.000370131
  9.054e-07          0.000388233
  9.055e-07          0.000406751
  9.056e-07          0.000425422
  9.057e-07          0.000444247
  9.058e-07          0.000463225
  9.059e-07          0.000482357
  9.06e-07          0.000514938
  9.061e-07          0.000544503
  9.062e-07          0.000573973
  9.063e-07          0.000603118
  9.064e-07          0.000632146
  9.065e-07          0.000667393
  9.066e-07          0.000702532
  9.067e-07          0.000737563
  9.068e-07          0.000772487
  9.069e-07          0.000807303
  9.07e-07          0.000864325
  9.071e-07          0.000923662
  9.072e-07          0.000982943
  9.073e-07          0.00103364
  9.074e-07          0.00108443
  9.075e-07          0.00113581
  9.076e-07          0.00120969
  9.077e-07          0.00128416
  9.078e-07          0.00135827
  9.079e-07          0.00143255
  9.08e-07          0.0015072
  9.081e-07          0.00157271
  9.082e-07          0.00163755
  9.083e-07          0.001873
  9.084e-07          0.00210538
  9.085e-07          0.00233533
  9.086e-07          0.00246857
  9.087e-07          0.00260046
  9.088e-07          0.00273102
  9.089e-07          0.00293285
  9.09e-07          0.00313266
  9.091e-07          0.00335285
  9.092e-07          0.00357378
  9.093e-07          0.00381269
  9.094e-07          0.00406016
  9.095e-07          0.00430939
  9.096e-07          0.004861
  9.097e-07          0.0054166
  9.098e-07          0.00597855
  9.099e-07          0.00662058
  9.1e-07          0.00726883
  9.101e-07          0.00778002
  9.102e-07          0.00815102
  9.103e-07          0.00850818
  9.104e-07          0.00885148
  9.105e-07          0.00955198
  9.106e-07          0.0102278
  9.107e-07          0.0108789
  9.108e-07          0.0115053
  9.109e-07          0.0124003
  9.11e-07          0.0132602
  9.111e-07          0.0144737
  9.112e-07          0.014904
  9.113e-07          0.01534
  9.114e-07          0.0157815
  9.115e-07          0.0170525
  9.116e-07          0.0183518
  9.117e-07          0.0196741
  9.118e-07          0.0210195
  9.119e-07          0.0223674
  9.12e-07          0.0237379
  9.121e-07          0.0249783
  9.122e-07          0.0259757
  9.123e-07          0.0269451
  9.124e-07          0.0278459
  9.125e-07          0.0287503
  9.126e-07          0.0296965
  9.127e-07          0.0306489
  9.128e-07          0.0310439
  9.129e-07          0.031441
  9.13e-07          0.0317991
  9.131e-07          0.0319856
  9.132e-07          0.0322796
  9.133e-07          0.0326003
  9.134e-07          0.0329194
  9.135e-07          0.0334191
  9.136e-07          0.0339163
  9.137e-07          0.0344203
  9.138e-07          0.0345186
  9.139e-07          0.0346162
  9.14e-07          0.0347179
  9.141e-07          0.034988
  9.142e-07          0.0352592
  9.143e-07          0.0355313
  9.144e-07          0.0357576
  9.145e-07          0.0362259
  9.146e-07          0.0366952
  9.147e-07          0.0368516
  9.148e-07          0.0370082
  9.149e-07          0.0371651
  9.15e-07          0.0373223
  9.151e-07          0.0372963
  9.152e-07          0.0372704
  9.153e-07          0.0372444
  9.154e-07          0.0372183
  9.155e-07          0.0372047
  9.156e-07          0.0371911
  9.157e-07          0.0371774
  9.158e-07          0.0371584
  9.159e-07          0.0371394
  9.16e-07          0.0371371
  9.161e-07          0.0371004
  9.162e-07          0.0370482
  9.163e-07          0.0369794
  9.164e-07          0.036879
  9.165e-07          0.0367788
  9.166e-07          0.0366787
  9.167e-07          0.0365786
  9.168e-07          0.0365266
  9.169e-07          0.0364746
  9.17e-07          0.0364226
  9.171e-07          0.0364691
  9.172e-07          0.0364827
  9.173e-07          0.0364963
  9.174e-07          0.0364801
  9.175e-07          0.0364637
  9.176e-07          0.0364751
  9.177e-07          0.0364865
  9.178e-07          0.0364978
  9.179e-07          0.0365143
  9.18e-07          0.0365307
  9.181e-07          0.0365247
  9.182e-07          0.0365187
  9.183e-07          0.0364928
  9.184e-07          0.036467
  9.185e-07          0.0364252
  9.186e-07          0.0363834
  9.187e-07          0.036347
  9.188e-07          0.0363106
  9.189e-07          0.0362742
  9.19e-07          0.0362735
  9.191e-07          0.0362969
  9.192e-07          0.0363203
  9.193e-07          0.0363437
  9.194e-07          0.0363278
  9.195e-07          0.0363119
  9.196e-07          0.0362958
  9.197e-07          0.0363374
  9.198e-07          0.036379
  9.199e-07          0.0364206
  9.2e-07          0.0364623
  9.201e-07          0.0364505
  9.202e-07          0.0364388
  9.203e-07          0.0364271
  9.204e-07          0.0364159
  9.205e-07          0.0364047
  9.206e-07          0.0363931
  9.207e-07          0.0363815
  9.208e-07          0.0362991
  9.209e-07          0.0362166
  9.21e-07          0.036134
  9.211e-07          0.0352469
  9.212e-07          0.0343595
  9.213e-07          0.0334719
  9.214e-07          0.032584
  9.215e-07          0.0316546
  9.216e-07          0.0307221
  9.217e-07          0.0297919
  9.218e-07          0.0289002
  9.219e-07          0.0280086
  9.22e-07          0.0271173
  9.221e-07          0.028024
  9.222e-07          0.0289281
  9.223e-07          0.0298318
  9.224e-07          0.0307353
  9.225e-07          0.0316431
  9.226e-07          0.0325508
  9.227e-07          0.0334584
  9.228e-07          0.0343661
  9.229e-07          0.0352249
  9.23e-07          0.0360812
  9.231e-07          0.0359946
  9.232e-07          0.0359082
  9.233e-07          0.0358452
  9.234e-07          0.0357822
  9.235e-07          0.0357193
  9.236e-07          0.0356805
  9.237e-07          0.0356417
  9.238e-07          0.035603
  9.239e-07          0.0355642
  9.24e-07          0.0355224
  9.241e-07          0.0355538
  9.242e-07          0.0355851
  9.243e-07          0.0356164
  9.244e-07          0.0356718
  9.245e-07          0.0357271
  9.246e-07          0.0357637
  9.247e-07          0.0358003
  9.248e-07          0.0358444
  9.249e-07          0.0358884
  9.25e-07          0.0358659
  9.251e-07          0.0358089
  9.252e-07          0.0357519
  9.253e-07          0.0356947
  9.254e-07          0.0356743
  9.255e-07          0.0356538
  9.256e-07          0.0356259
  9.257e-07          0.0356279
  9.258e-07          0.0356299
  9.259e-07          0.0356319
  9.26e-07          0.0356338
  9.261e-07          0.0356084
  9.262e-07          0.0355833
  9.263e-07          0.0355581
  9.264e-07          0.035533
  9.265e-07          0.0355138
  9.266e-07          0.0354945
  9.267e-07          0.0354784
  9.268e-07          0.0354622
  9.269e-07          0.035446
  9.27e-07          0.0354298
  9.271e-07          0.0344806
  9.272e-07          0.0335337
  9.273e-07          0.0325891
  9.274e-07          0.0316467
  9.275e-07          0.0307277
  9.276e-07          0.0298095
  9.277e-07          0.0288925
  9.278e-07          0.0279765
  9.279e-07          0.0270718
  9.28e-07          0.0261674
  9.281e-07          0.0270394
  9.282e-07          0.0279116
  9.283e-07          0.0287834
  9.284e-07          0.0296597
  9.285e-07          0.0305359
  9.286e-07          0.0313933
  9.287e-07          0.0322495
  9.288e-07          0.0331244
  9.289e-07          0.0339993
  9.29e-07          0.034874
  9.291e-07          0.0342829
  9.292e-07          0.0336919
  9.293e-07          0.0330075
  9.294e-07          0.0323214
  9.295e-07          0.0316422
  9.296e-07          0.0310374
  9.297e-07          0.0304333
  9.298e-07          0.02983
  9.299e-07          0.0292274
  9.3e-07          0.0286346
  9.301e-07          0.0289489
  9.302e-07          0.0292663
  9.303e-07          0.0295861
  9.304e-07          0.0299058
  9.305e-07          0.0302254
  9.306e-07          0.0305449
  9.307e-07          0.0308457
  9.308e-07          0.031146
  9.309e-07          0.0314637
  9.31e-07          0.0317812
  9.311e-07          0.0315052
  9.312e-07          0.0312292
  9.313e-07          0.0309533
  9.314e-07          0.0306086
  9.315e-07          0.0302711
  9.316e-07          0.0299348
  9.317e-07          0.0296497
  9.318e-07          0.0293648
  9.319e-07          0.0290803
  9.32e-07          0.028796
  9.321e-07          0.0286438
  9.322e-07          0.0284917
  9.323e-07          0.0283444
  9.324e-07          0.0281971
  9.325e-07          0.0280472
  9.326e-07          0.0278973
  9.327e-07          0.0277475
  9.328e-07          0.0276021
  9.329e-07          0.0274567
  9.33e-07          0.0273113
  9.331e-07          0.0275345
  9.332e-07          0.0277657
  9.333e-07          0.0279924
  9.334e-07          0.0282074
  9.335e-07          0.028357
  9.336e-07          0.0285055
  9.337e-07          0.0286529
  9.338e-07          0.0287556
  9.339e-07          0.0288891
  9.34e-07          0.0290213
  9.341e-07          0.0291373
  9.342e-07          0.0292741
  9.343e-07          0.02941
  9.344e-07          0.0294149
  9.345e-07          0.0294221
  9.346e-07          0.0294267
  9.347e-07          0.0295087
  9.348e-07          0.0295891
  9.349e-07          0.029668
  9.35e-07          0.0297454
  9.351e-07          0.0263516
  9.352e-07          0.0230515
  9.353e-07          0.0198402
  9.354e-07          0.0168662
  9.355e-07          0.0139403
  9.356e-07          0.0110488
  9.357e-07          0.00815799
  9.358e-07          0.00535805
  9.359e-07          0.0026486
  9.36e-07          2.92576e-05
  9.361e-07          0.00217284
  9.362e-07          0.00424112
  9.363e-07          0.00623418
  9.364e-07          0.00807826
  9.365e-07          0.00981067
  9.366e-07          0.0114666
  9.367e-07          0.0130222
  9.368e-07          0.0144776
  9.369e-07          0.0158326
  9.37e-07          0.0170137
  9.371e-07          0.0150524
  9.372e-07          0.0131891
  9.373e-07          0.0114233
  9.374e-07          0.00977442
  9.375e-07          0.00821811
  9.376e-07          0.00675435
  9.377e-07          0.00520102
  9.378e-07          0.00380609
  9.379e-07          0.00258343
  9.38e-07          0.00153797
  9.381e-07          0.00205527
  9.382e-07          0.00242599
  9.383e-07          0.0029607
  9.384e-07          0.0034713
  9.385e-07          0.00394769
  9.386e-07          0.00439761
  9.387e-07          0.00427521
  9.388e-07          0.00400581
  9.389e-07          0.00417409
  9.39e-07          0.00430096
  9.391e-07          0.00418883
  9.392e-07          0.00405881
  9.393e-07          0.00401287
  9.394e-07          0.00395619
  9.395e-07          0.00388917
  9.396e-07          0.00372186
  9.397e-07          0.00353854
  9.398e-07          0.00333917
  9.399e-07          0.00311559
  9.4e-07          0.0029682
  9.401e-07          0.00273598
  9.402e-07          0.00251127
  9.403e-07          0.00239019
  9.404e-07          0.00226953
  9.405e-07          0.0021493
  9.406e-07          0.0020512
  9.407e-07          0.00195356
  9.408e-07          0.00185637
  9.409e-07          0.00175963
  9.41e-07          0.00166173
  9.411e-07          0.00147744
  9.412e-07          0.00130426
  9.413e-07          0.00113385
  9.414e-07          0.000975461
  9.415e-07          0.000829068
  9.416e-07          0.000704902
  9.417e-07          0.000591132
  9.418e-07          0.000487389
  9.419e-07          0.000419467
  9.42e-07          0.000355534
  9.421e-07          0.000346813
  9.422e-07          0.000337605
  9.423e-07          0.000339676
  9.424e-07          0.000341635
  9.425e-07          0.000343442
  9.426e-07          0.000325722
  9.427e-07          0.000307139
  9.428e-07          0.00028788
  9.429e-07          0.000272033
  9.43e-07          0.000255613
  9.431e-07          0.00023616
  9.432e-07          0.000229985
  9.433e-07          0.000223758
  9.434e-07          0.000217814
  9.435e-07          0.0002118
  9.436e-07          0.000205716
  9.437e-07          0.000199562
  9.438e-07          0.000193037
  9.439e-07          0.000179747
  9.44e-07          0.000166371
  9.441e-07          0.000165998
  9.442e-07          0.000170504
  9.443e-07          0.000173645
  9.444e-07          0.000175421
  9.445e-07          0.000175784
  9.446e-07          0.000174784
  9.447e-07          0.000172424
  9.448e-07          0.000172641
  9.449e-07          0.0001719
  9.45e-07          0.000170204
  9.451e-07          0.000159663
  9.452e-07          0.000148913
  9.453e-07          0.000138248
  9.454e-07          0.000127667
  9.455e-07          0.000123828
  9.456e-07          0.000120206
  9.457e-07          0.000116601
  9.458e-07          0.000113013
  9.459e-07          0.000109402
  9.46e-07          0.000105811
  9.461e-07          0.000102636
  9.462e-07          9.81493e-05
  9.463e-07          9.35395e-05
  9.464e-07          8.89325e-05
  9.465e-07          8.43285e-05
  9.466e-07          7.9796e-05
  9.467e-07          7.98499e-05
  9.468e-07          7.99036e-05
  9.469e-07          8.00399e-05
  9.47e-07          8.01761e-05
  9.471e-07          8.03713e-05
  9.472e-07          8.06027e-05
  9.473e-07          8.08407e-05
  9.474e-07          8.10789e-05
  9.475e-07          8.12874e-05
  9.476e-07          8.14958e-05
  9.477e-07          8.16801e-05
  9.478e-07          8.18499e-05
  9.479e-07          8.20195e-05
  9.48e-07          8.21734e-05
  9.481e-07          7.30078e-05
  9.482e-07          6.42808e-05
  9.483e-07          5.59914e-05
  9.484e-07          4.80169e-05
  9.485e-07          4.05156e-05
  9.486e-07          3.35858e-05
  9.487e-07          2.70816e-05
  9.488e-07          2.59905e-05
  9.489e-07          2.48983e-05
  9.49e-07          2.37951e-05
  9.491e-07          2.1418e-05
  9.492e-07          1.90405e-05
  9.493e-07          1.66627e-05
  9.494e-07          1.42828e-05
  9.495e-07          1.18874e-05
  9.496e-07          9.49844e-06
  9.497e-07          7.11597e-06
  9.498e-07          4.74796e-06
  9.499e-07          2.37861e-06
  9.5e-07          7.90182e-09
  9.501e-07          3.47688e-06
  9.502e-07          6.93677e-06
  9.503e-07          1.03875e-05
  9.504e-07          1.38292e-05
  9.505e-07          1.72805e-05
  9.506e-07          2.07302e-05
  9.507e-07          2.41838e-05
  9.508e-07          2.76373e-05
  9.509e-07          3.10933e-05
  9.51e-07          3.45497e-05
  9.511e-07          3.14344e-05
  9.512e-07          2.83143e-05
  9.513e-07          2.51896e-05
  9.514e-07          2.206e-05
  9.515e-07          1.89258e-05
  9.516e-07          1.57551e-05
  9.517e-07          1.25882e-05
  9.518e-07          9.43154e-06
  9.519e-07          6.29713e-06
  9.52e-07          3.16095e-06
  9.521e-07          5.58879e-06
  9.522e-07          8.0187e-06
  9.523e-07          1.04402e-05
  9.524e-07          1.28588e-05
  9.525e-07          1.52746e-05
  9.526e-07          1.76809e-05
  9.527e-07          2.00803e-05
  9.528e-07          2.24744e-05
  9.529e-07          2.48633e-05
  9.53e-07          2.72824e-05
  9.531e-07          2.80233e-05
  9.532e-07          2.87644e-05
  9.533e-07          2.95009e-05
  9.534e-07          3.02406e-05
  9.535e-07          3.09805e-05
  9.536e-07          3.17062e-05
  9.537e-07          3.24144e-05
  9.538e-07          3.31212e-05
  9.539e-07          3.38266e-05
  9.54e-07          3.45269e-05
  9.541e-07          3.42394e-05
  9.542e-07          3.39518e-05
  9.543e-07          3.36642e-05
  9.544e-07          3.33449e-05
  9.545e-07          3.3026e-05
  9.546e-07          3.27075e-05
  9.547e-07          3.23872e-05
  9.548e-07          3.20673e-05
  9.549e-07          3.17478e-05
  9.55e-07          3.14288e-05
  9.551e-07          2.83307e-05
  9.552e-07          2.52304e-05
  9.553e-07          2.21254e-05
  9.554e-07          1.90189e-05
  9.555e-07          1.58942e-05
  9.556e-07          1.27765e-05
  9.557e-07          9.66272e-06
  9.558e-07          6.55099e-06
  9.559e-07          3.44513e-06
  9.56e-07          3.4522e-07
  9.561e-07          3.61647e-06
  9.562e-07          6.89008e-06
  9.563e-07          1.01656e-05
  9.564e-07          1.34432e-05
  9.565e-07          1.67083e-05
  9.566e-07          1.9968e-05
  9.567e-07          2.32233e-05
  9.568e-07          2.64662e-05
  9.569e-07          2.97027e-05
  9.57e-07          3.29327e-05
  9.571e-07          3.29796e-05
  9.572e-07          3.30722e-05
  9.573e-07          3.31678e-05
  9.574e-07          3.32636e-05
  9.575e-07          3.33536e-05
  9.576e-07          3.34032e-05
  9.577e-07          3.34525e-05
  9.578e-07          3.35017e-05
  9.579e-07          3.35443e-05
  9.58e-07          3.35846e-05
  9.581e-07          3.33801e-05
  9.582e-07          3.31759e-05
  9.583e-07          3.30146e-05
  9.584e-07          3.28531e-05
  9.585e-07          3.2697e-05
  9.586e-07          3.25405e-05
  9.587e-07          3.23228e-05
  9.588e-07          3.21054e-05
  9.589e-07          3.19414e-05
  9.59e-07          3.17773e-05
  9.591e-07          3.1845e-05
  9.592e-07          3.19124e-05
  9.593e-07          3.1983e-05
  9.594e-07          3.20788e-05
  9.595e-07          3.21693e-05
  9.596e-07          3.22598e-05
  9.597e-07          3.23358e-05
  9.598e-07          3.24116e-05
  9.599e-07          3.2484e-05
  9.6e-07          3.25562e-05
  9.601e-07          3.26017e-05
  9.602e-07          3.26465e-05
  9.603e-07          3.26908e-05
  9.604e-07          3.28131e-05
  9.605e-07          3.29355e-05
  9.606e-07          3.30614e-05
  9.607e-07          3.31873e-05
  9.608e-07          3.32352e-05
  9.609e-07          3.32826e-05
  9.61e-07          3.33332e-05
  9.611e-07          3.3302e-05
  9.612e-07          3.32672e-05
  9.613e-07          3.3232e-05
  9.614e-07          3.31966e-05
