#####################################################################
#  MagAO-X Filter Curve
#
# magaox_sci1-ip_bs-65-35_scibs-ri_atm.dat
#
# Science (camssci1) i' bandpass with 65/35 B/S, sci ri, with atmosphere
#
# Characteristics:
#    lambda_0:  7.63938e-07 [central wavelength, in m]
#    w_eff:     1.2028e-07 [effective width, in m]
#    FWHM:      1.31919e-07 [full-width at half max., in m]
#    Trans_max: 0.112082 [maximum transmission]
#
# Vega Zero Point Flux Densities (calculated):
#    f_lambda_0: 0.0133122 [W/m^3 above atm]
#    f_nu_0:     2555.48 [Jy above atm]
#    f_phot_0:   5.07716e+16 [photons/s/m^3 above atm]
#
# Vega Zero Point Fluxes (calculated):
#    F_W_0: 4.86643e-08 [W at telescope aperture]
#    F_phot_0:   2.08025e+10 [photons/s at detector]
#
#####################################################################
# lambda [m]             transmission
#-------------------------------------------------
  4.999e-07          0
  5e-07          1.54709e-08
  5.001e-07          1.79326e-08
  5.002e-07          2.04851e-08
  5.003e-07          2.31269e-08
  5.004e-07          2.58598e-08
  5.005e-07          2.86917e-08
  5.006e-07          2.53046e-08
  5.007e-07          2.16846e-08
  5.008e-07          1.78303e-08
  5.009e-07          1.37406e-08
  5.01e-07          9.4141e-09
  5.011e-07          1.22222e-08
  5.012e-07          1.51725e-08
  5.013e-07          1.82683e-08
  5.014e-07          2.15099e-08
  5.015e-07          2.48981e-08
  5.016e-07          2.21418e-08
  5.017e-07          1.92503e-08
  5.018e-07          1.62232e-08
  5.019e-07          1.30599e-08
  5.02e-07          9.75989e-09
  5.021e-07          1.32285e-08
  5.022e-07          1.67363e-08
  5.023e-07          2.02835e-08
  5.024e-07          2.3873e-08
  5.025e-07          2.75031e-08
  5.026e-07          2.89351e-08
  5.027e-07          3.0328e-08
  5.028e-07          3.16813e-08
  5.029e-07          3.29941e-08
  5.03e-07          3.426e-08
  5.031e-07          3.37628e-08
  5.032e-07          3.32521e-08
  5.033e-07          3.27242e-08
  5.034e-07          3.21827e-08
  5.035e-07          3.16275e-08
  5.036e-07          3.31462e-08
  5.037e-07          3.45486e-08
  5.038e-07          3.5834e-08
  5.039e-07          3.70018e-08
  5.04e-07          3.80513e-08
  5.041e-07          3.35797e-08
  5.042e-07          2.92613e-08
  5.043e-07          2.50969e-08
  5.044e-07          2.10916e-08
  5.045e-07          1.72426e-08
  5.046e-07          1.75679e-08
  5.047e-07          1.78774e-08
  5.048e-07          1.81672e-08
  5.049e-07          1.84409e-08
  5.05e-07          1.86961e-08
  5.051e-07          1.83031e-08
  5.052e-07          1.79127e-08
  5.053e-07          1.7525e-08
  5.054e-07          1.71439e-08
  5.055e-07          1.67653e-08
  5.056e-07          1.85777e-08
  5.057e-07          2.04031e-08
  5.058e-07          2.22364e-08
  5.059e-07          2.40819e-08
  5.06e-07          2.59396e-08
  5.061e-07          2.50272e-08
  5.062e-07          2.40942e-08
  5.063e-07          2.31406e-08
  5.064e-07          2.21663e-08
  5.065e-07          2.11712e-08
  5.066e-07          2.14776e-08
  5.067e-07          2.17865e-08
  5.068e-07          2.2098e-08
  5.069e-07          2.24209e-08
  5.07e-07          2.27466e-08
  5.071e-07          2.17701e-08
  5.072e-07          2.07915e-08
  5.073e-07          1.9811e-08
  5.074e-07          1.88283e-08
  5.075e-07          1.78379e-08
  5.076e-07          1.88879e-08
  5.077e-07          1.98975e-08
  5.078e-07          2.08667e-08
  5.079e-07          2.17951e-08
  5.08e-07          2.26826e-08
  5.081e-07          2.06746e-08
  5.082e-07          1.87472e-08
  5.083e-07          1.69008e-08
  5.084e-07          1.51357e-08
  5.085e-07          1.34523e-08
  5.086e-07          1.27255e-08
  5.087e-07          1.2013e-08
  5.088e-07          1.13149e-08
  5.089e-07          1.06312e-08
  5.09e-07          9.962e-09
  5.091e-07          9.80437e-09
  5.092e-07          9.62188e-09
  5.093e-07          9.41445e-09
  5.094e-07          9.18198e-09
  5.095e-07          8.92441e-09
  5.096e-07          9.86567e-09
  5.097e-07          1.06986e-08
  5.098e-07          1.14218e-08
  5.099e-07          1.2035e-08
  5.1e-07          1.25376e-08
  5.101e-07          1.11973e-08
  5.102e-07          9.9185e-09
  5.103e-07          8.70293e-09
  5.104e-07          7.55039e-09
  5.105e-07          6.46186e-09
  5.106e-07          6.85802e-09
  5.107e-07          7.22284e-09
  5.108e-07          7.55696e-09
  5.109e-07          7.85949e-09
  5.11e-07          8.13026e-09
  5.111e-07          7.77994e-09
  5.112e-07          7.43678e-09
  5.113e-07          7.10082e-09
  5.114e-07          6.77208e-09
  5.115e-07          6.45205e-09
  5.116e-07          5.85157e-09
  5.117e-07          5.26031e-09
  5.118e-07          4.67833e-09
  5.119e-07          4.10526e-09
  5.12e-07          3.54167e-09
  5.121e-07          3.97604e-09
  5.122e-07          4.41136e-09
  5.123e-07          4.84833e-09
  5.124e-07          5.28645e-09
  5.125e-07          5.72574e-09
  5.126e-07          5.34508e-09
  5.127e-07          4.95497e-09
  5.128e-07          4.55518e-09
  5.129e-07          4.14744e-09
  5.13e-07          3.72986e-09
  5.131e-07          4.6192e-09
  5.132e-07          5.54268e-09
  5.133e-07          6.50194e-09
  5.134e-07          7.49647e-09
  5.135e-07          8.52685e-09
  5.136e-07          8.46362e-09
  5.137e-07          8.37831e-09
  5.138e-07          8.27086e-09
  5.139e-07          8.14117e-09
  5.14e-07          7.99132e-09
  5.141e-07          7.98247e-09
  5.142e-07          7.9446e-09
  5.143e-07          7.87731e-09
  5.144e-07          7.78077e-09
  5.145e-07          7.65489e-09
  5.146e-07          8.48396e-09
  5.147e-07          9.35426e-09
  5.148e-07          1.02676e-08
  5.149e-07          1.12242e-08
  5.15e-07          1.22241e-08
  5.151e-07          1.22864e-08
  5.152e-07          1.23141e-08
  5.153e-07          1.23096e-08
  5.154e-07          1.22705e-08
  5.155e-07          1.21966e-08
  5.156e-07          1.16735e-08
  5.157e-07          1.11171e-08
  5.158e-07          1.05297e-08
  5.159e-07          9.91133e-09
  5.16e-07          9.26179e-09
  5.161e-07          8.63155e-09
  5.162e-07          8.00931e-09
  5.163e-07          7.39509e-09
  5.164e-07          6.78849e-09
  5.165e-07          6.19005e-09
  5.166e-07          7.39087e-09
  5.167e-07          8.51152e-09
  5.168e-07          9.54988e-09
  5.169e-07          1.05072e-08
  5.17e-07          1.13847e-08
  5.171e-07          1.12935e-08
  5.172e-07          1.11765e-08
  5.173e-07          1.10335e-08
  5.174e-07          1.08633e-08
  5.175e-07          1.0667e-08
  5.176e-07          9.53021e-09
  5.177e-07          8.44934e-09
  5.178e-07          7.42451e-09
  5.179e-07          6.45589e-09
  5.18e-07          5.5436e-09
  5.181e-07          5.89585e-09
  5.182e-07          6.21447e-09
  5.183e-07          6.49937e-09
  5.184e-07          6.75047e-09
  5.185e-07          6.9677e-09
  5.186e-07          7.19563e-09
  5.187e-07          7.40469e-09
  5.188e-07          7.59484e-09
  5.189e-07          7.76603e-09
  5.19e-07          7.91822e-09
  5.191e-07          8.29252e-09
  5.192e-07          8.65158e-09
  5.193e-07          8.99537e-09
  5.194e-07          9.32383e-09
  5.195e-07          9.63723e-09
  5.196e-07          8.53271e-09
  5.197e-07          7.44324e-09
  5.198e-07          6.36888e-09
  5.199e-07          5.30966e-09
  5.2e-07          4.26625e-09
  5.201e-07          4.934e-09
  5.202e-07          5.60013e-09
  5.203e-07          6.26275e-09
  5.204e-07          6.92334e-09
  5.205e-07          7.58189e-09
  5.206e-07          6.91034e-09
  5.207e-07          6.23742e-09
  5.208e-07          5.56235e-09
  5.209e-07          4.88513e-09
  5.21e-07          4.20576e-09
  5.211e-07          4.23768e-09
  5.212e-07          4.26916e-09
  5.213e-07          4.30062e-09
  5.214e-07          4.3328e-09
  5.215e-07          4.36497e-09
  5.216e-07          4.81358e-09
  5.217e-07          5.25562e-09
  5.218e-07          5.69009e-09
  5.219e-07          6.11779e-09
  5.22e-07          6.5387e-09
  5.221e-07          5.95357e-09
  5.222e-07          5.38492e-09
  5.223e-07          4.83279e-09
  5.224e-07          4.29721e-09
  5.225e-07          3.77821e-09
  5.226e-07          4.04242e-09
  5.227e-07          4.28547e-09
  5.228e-07          4.50732e-09
  5.229e-07          4.70792e-09
  5.23e-07          4.88725e-09
  5.231e-07          4.60611e-09
  5.232e-07          4.33403e-09
  5.233e-07          4.0696e-09
  5.234e-07          3.81282e-09
  5.235e-07          3.56266e-09
  5.236e-07          3.13109e-09
  5.237e-07          2.72276e-09
  5.238e-07          2.33772e-09
  5.239e-07          1.97653e-09
  5.24e-07          1.63855e-09
  5.241e-07          1.64814e-09
  5.242e-07          1.6517e-09
  5.243e-07          1.64966e-09
  5.244e-07          1.64201e-09
  5.245e-07          1.62872e-09
  5.246e-07          1.79482e-09
  5.247e-07          1.94488e-09
  5.248e-07          2.07888e-09
  5.249e-07          2.19678e-09
  5.25e-07          2.29854e-09
  5.251e-07          2.09967e-09
  5.252e-07          1.9088e-09
  5.253e-07          1.72593e-09
  5.254e-07          1.55108e-09
  5.255e-07          1.38427e-09
  5.256e-07          1.21034e-09
  5.257e-07          1.0435e-09
  5.258e-07          8.83746e-10
  5.259e-07          7.31104e-10
  5.26e-07          5.85712e-10
  5.261e-07          7.15983e-10
  5.262e-07          8.40816e-10
  5.263e-07          9.60199e-10
  5.264e-07          1.07416e-09
  5.265e-07          1.18265e-09
  5.266e-07          1.29661e-09
  5.267e-07          1.4069e-09
  5.268e-07          1.51383e-09
  5.269e-07          1.61739e-09
  5.27e-07          1.71758e-09
  5.271e-07          1.62798e-09
  5.272e-07          1.53935e-09
  5.273e-07          1.45172e-09
  5.274e-07          1.36507e-09
  5.275e-07          1.27941e-09
  5.276e-07          1.30475e-09
  5.277e-07          1.33011e-09
  5.278e-07          1.35549e-09
  5.279e-07          1.3809e-09
  5.28e-07          1.40633e-09
  5.281e-07          1.36655e-09
  5.282e-07          1.326e-09
  5.283e-07          1.2847e-09
  5.284e-07          1.24262e-09
  5.285e-07          1.19986e-09
  5.286e-07          1.1478e-09
  5.287e-07          1.09361e-09
  5.288e-07          1.03722e-09
  5.289e-07          9.78689e-10
  5.29e-07          9.18026e-10
  5.291e-07          1.03853e-09
  5.292e-07          1.16321e-09
  5.293e-07          1.29222e-09
  5.294e-07          1.42547e-09
  5.295e-07          1.56304e-09
  5.296e-07          1.50203e-09
  5.297e-07          1.4356e-09
  5.298e-07          1.36376e-09
  5.299e-07          1.28649e-09
  5.3e-07          1.20378e-09
  5.301e-07          1.22869e-09
  5.302e-07          1.2526e-09
  5.303e-07          1.27551e-09
  5.304e-07          1.29743e-09
  5.305e-07          1.31835e-09
  5.306e-07          1.48264e-09
  5.307e-07          1.65541e-09
  5.308e-07          1.83668e-09
  5.309e-07          2.02646e-09
  5.31e-07          2.2249e-09
  5.311e-07          2.05868e-09
  5.312e-07          1.87268e-09
  5.313e-07          1.66641e-09
  5.314e-07          1.44037e-09
  5.315e-07          1.19453e-09
  5.316e-07          1.42583e-09
  5.317e-07          1.67098e-09
  5.318e-07          1.92971e-09
  5.319e-07          2.20206e-09
  5.32e-07          2.48739e-09
  5.321e-07          2.83055e-09
  5.322e-07          3.18887e-09
  5.323e-07          3.56236e-09
  5.324e-07          3.95104e-09
  5.325e-07          4.35493e-09
  5.326e-07          4.46138e-09
  5.327e-07          4.56901e-09
  5.328e-07          4.67782e-09
  5.329e-07          4.78782e-09
  5.33e-07          4.899e-09
  5.331e-07          4.61614e-09
  5.332e-07          4.33048e-09
  5.333e-07          4.04202e-09
  5.334e-07          3.74979e-09
  5.335e-07          3.45489e-09
  5.336e-07          3.41656e-09
  5.337e-07          3.37841e-09
  5.338e-07          3.34046e-09
  5.339e-07          3.30269e-09
  5.34e-07          3.26511e-09
  5.341e-07          3.53829e-09
  5.342e-07          3.80654e-09
  5.343e-07          4.06986e-09
  5.344e-07          4.32824e-09
  5.345e-07          4.58268e-09
  5.346e-07          4.57893e-09
  5.347e-07          4.57465e-09
  5.348e-07          4.56985e-09
  5.349e-07          4.5647e-09
  5.35e-07          4.55902e-09
  5.351e-07          4.39756e-09
  5.352e-07          4.23626e-09
  5.353e-07          4.07629e-09
  5.354e-07          3.91766e-09
  5.355e-07          3.76036e-09
  5.356e-07          3.47063e-09
  5.357e-07          3.18101e-09
  5.358e-07          2.89149e-09
  5.359e-07          2.60208e-09
  5.36e-07          2.31277e-09
  5.361e-07          2.64682e-09
  5.362e-07          2.98375e-09
  5.363e-07          3.32356e-09
  5.364e-07          3.66625e-09
  5.365e-07          4.01182e-09
  5.366e-07          3.86788e-09
  5.367e-07          3.7213e-09
  5.368e-07          3.5721e-09
  5.369e-07          3.42026e-09
  5.37e-07          3.26621e-09
  5.371e-07          3.42646e-09
  5.372e-07          3.5887e-09
  5.373e-07          3.75294e-09
  5.374e-07          3.91919e-09
  5.375e-07          4.08744e-09
  5.376e-07          4.30727e-09
  5.377e-07          4.52767e-09
  5.378e-07          4.74863e-09
  5.379e-07          4.97016e-09
  5.38e-07          5.19226e-09
  5.381e-07          5.27455e-09
  5.382e-07          5.35434e-09
  5.383e-07          5.43163e-09
  5.384e-07          5.5064e-09
  5.385e-07          5.57865e-09
  5.386e-07          5.2929e-09
  5.387e-07          5.01444e-09
  5.388e-07          4.74325e-09
  5.389e-07          4.47935e-09
  5.39e-07          4.22275e-09
  5.391e-07          3.79693e-09
  5.392e-07          3.39056e-09
  5.393e-07          3.00365e-09
  5.394e-07          2.63622e-09
  5.395e-07          2.28785e-09
  5.396e-07          2.45748e-09
  5.397e-07          2.6057e-09
  5.398e-07          2.73252e-09
  5.399e-07          2.83793e-09
  5.4e-07          2.92191e-09
  5.401e-07          2.55832e-09
  5.402e-07          2.2155e-09
  5.403e-07          1.89349e-09
  5.404e-07          1.59232e-09
  5.405e-07          1.31226e-09
  5.406e-07          1.32539e-09
  5.407e-07          1.33305e-09
  5.408e-07          1.33522e-09
  5.409e-07          1.33198e-09
  5.41e-07          1.32324e-09
  5.411e-07          1.23421e-09
  5.412e-07          1.14792e-09
  5.413e-07          1.06473e-09
  5.414e-07          9.84621e-10
  5.415e-07          9.07607e-10
  5.416e-07          1.07127e-09
  5.417e-07          1.22181e-09
  5.418e-07          1.35922e-09
  5.419e-07          1.48347e-09
  5.42e-07          1.59458e-09
  5.421e-07          1.47846e-09
  5.422e-07          1.36643e-09
  5.423e-07          1.25881e-09
  5.424e-07          1.15525e-09
  5.425e-07          1.05573e-09
  5.426e-07          9.24746e-10
  5.427e-07          7.98712e-10
  5.428e-07          6.77639e-10
  5.429e-07          5.61533e-10
  5.43e-07          4.50305e-10
  5.431e-07          4.69654e-10
  5.432e-07          4.88008e-10
  5.433e-07          5.05365e-10
  5.434e-07          5.2186e-10
  5.435e-07          5.37365e-10
  5.436e-07          5.51108e-10
  5.437e-07          5.64189e-10
  5.438e-07          5.76745e-10
  5.439e-07          5.88778e-10
  5.44e-07          6.00285e-10
  5.441e-07          5.07535e-10
  5.442e-07          4.16106e-10
  5.443e-07          3.25999e-10
  5.444e-07          2.37217e-10
  5.445e-07          1.4976e-10
  5.446e-07          1.78442e-10
  5.447e-07          2.0699e-10
  5.448e-07          2.35464e-10
  5.449e-07          2.63818e-10
  5.45e-07          2.92052e-10
  5.451e-07          3.10537e-10
  5.452e-07          3.29111e-10
  5.453e-07          3.47774e-10
  5.454e-07          3.66527e-10
  5.455e-07          3.85369e-10
  5.456e-07          4.25143e-10
  5.457e-07          4.65474e-10
  5.458e-07          5.06361e-10
  5.459e-07          5.47804e-10
  5.46e-07          5.89803e-10
  5.461e-07          6.02562e-10
  5.462e-07          6.15616e-10
  5.463e-07          6.28763e-10
  5.464e-07          6.42053e-10
  5.465e-07          6.55445e-10
  5.466e-07          5.4864e-10
  5.467e-07          4.38185e-10
  5.468e-07          3.24073e-10
  5.469e-07          2.06277e-10
  5.47e-07          8.48392e-11
  5.471e-07          2.99006e-10
  5.472e-07          5.20951e-10
  5.473e-07          7.50678e-10
  5.474e-07          9.88194e-10
  5.475e-07          1.2335e-09
  5.476e-07          1.17733e-09
  5.477e-07          1.11771e-09
  5.478e-07          1.05464e-09
  5.479e-07          9.8811e-10
  5.48e-07          9.1813e-10
  5.481e-07          8.8508e-10
  5.482e-07          8.49635e-10
  5.483e-07          8.11972e-10
  5.484e-07          7.71893e-10
  5.485e-07          7.29394e-10
  5.486e-07          9.06393e-10
  5.487e-07          1.09031e-09
  5.488e-07          1.28131e-09
  5.489e-07          1.4794e-09
  5.49e-07          1.68458e-09
  5.491e-07          1.56934e-09
  5.492e-07          1.44805e-09
  5.493e-07          1.32071e-09
  5.494e-07          1.18776e-09
  5.495e-07          1.04865e-09
  5.496e-07          1.06265e-09
  5.497e-07          1.07652e-09
  5.498e-07          1.09026e-09
  5.499e-07          1.10386e-09
  5.5e-07          1.11732e-09
  5.501e-07          1.34167e-09
  5.502e-07          1.57134e-09
  5.503e-07          1.80636e-09
  5.504e-07          2.04669e-09
  5.505e-07          2.29213e-09
  5.506e-07          2.07117e-09
  5.507e-07          1.84589e-09
  5.508e-07          1.61629e-09
  5.509e-07          1.38236e-09
  5.51e-07          1.1441e-09
  5.511e-07          1.22719e-09
  5.512e-07          1.31122e-09
  5.513e-07          1.3962e-09
  5.514e-07          1.48213e-09
  5.515e-07          1.56953e-09
  5.516e-07          1.44923e-09
  5.517e-07          1.32752e-09
  5.518e-07          1.20441e-09
  5.519e-07          1.07965e-09
  5.52e-07          9.53534e-10
  5.521e-07          1.11629e-09
  5.522e-07          1.28088e-09
  5.523e-07          1.44732e-09
  5.524e-07          1.61559e-09
  5.525e-07          1.78571e-09
  5.526e-07          1.82697e-09
  5.527e-07          1.86867e-09
  5.528e-07          1.91079e-09
  5.529e-07          1.95377e-09
  5.53e-07          1.9972e-09
  5.531e-07          1.84581e-09
  5.532e-07          1.69001e-09
  5.533e-07          1.52988e-09
  5.534e-07          1.36533e-09
  5.535e-07          1.19637e-09
  5.536e-07          1.165e-09
  5.537e-07          1.13176e-09
  5.538e-07          1.09668e-09
  5.539e-07          1.05975e-09
  5.54e-07          1.02122e-09
  5.541e-07          1.41062e-09
  5.542e-07          1.81754e-09
  5.543e-07          2.24143e-09
  5.544e-07          2.68263e-09
  5.545e-07          3.14113e-09
  5.546e-07          2.9639e-09
  5.547e-07          2.76958e-09
  5.548e-07          2.55817e-09
  5.549e-07          2.32967e-09
  5.55e-07          2.08411e-09
  5.551e-07          2.09646e-09
  5.552e-07          2.10344e-09
  5.553e-07          2.10525e-09
  5.554e-07          2.10306e-09
  5.555e-07          2.09571e-09
  5.556e-07          2.60989e-09
  5.557e-07          3.1585e-09
  5.558e-07          3.74245e-09
  5.559e-07          4.36172e-09
  5.56e-07          5.01629e-09
  5.561e-07          4.84203e-09
  5.562e-07          4.63596e-09
  5.563e-07          4.39811e-09
  5.564e-07          4.12849e-09
  5.565e-07          3.82713e-09
  5.566e-07          4.56838e-09
  5.567e-07          5.34571e-09
  5.568e-07          6.1591e-09
  5.569e-07          7.00853e-09
  5.57e-07          7.89398e-09
  5.571e-07          7.213e-09
  5.572e-07          6.52753e-09
  5.573e-07          5.83555e-09
  5.574e-07          5.13708e-09
  5.575e-07          4.43097e-09
  5.576e-07          4.97118e-09
  5.577e-07          5.48104e-09
  5.578e-07          5.96007e-09
  5.579e-07          6.40872e-09
