#####################################################################
#  MagAO-X Filter Curve
#
# magaox_sci-halpha_bs-halpha-ir.dat
#
# Science H-alpha bandpass with H-alpha/IR B/S, without atmosphere
#
# Characteristics:
#    lambda_0:  6.56423e-07 [central wavelength, in m]
#    w_eff:     8.53271e-09 [effective width, in m]
#    FWHM:      8.47092e-09 [full-width at half max., in m]
#    Trans_max: 0.229925 [maximum transmission]
#
# Vega Zero Point Flux Densities (calculated):
#    f_lambda_0: 0.0178811 [W/m^3 above atm]
#    f_nu_0:     2569.79 [Jy above atm]
#    f_phot_0:   5.90848e+16 [photons/s/m^3 above atm]
#
# Vega Zero Point Fluxes (calculated):
#    F_W_0: 4.63708e-09 [W at telescope aperture]
#    F_phot_0:   3.523e+09 [photons/s at detector]
#
#####################################################################
# lambda [m]             transmission
#-------------------------------------------------
  6.4e-07          0
  6.401e-07          1.51298e-06
  6.402e-07          3.03313e-06
  6.403e-07          3.33776e-06
  6.404e-07          3.64366e-06
  6.405e-07          3.73421e-06
  6.406e-07          3.82502e-06
  6.407e-07          3.83221e-06
  6.408e-07          3.84059e-06
  6.409e-07          3.84896e-06
  6.41e-07          3.85628e-06
  6.411e-07          3.85906e-06
  6.412e-07          3.8629e-06
  6.413e-07          3.86509e-06
  6.414e-07          3.86823e-06
  6.415e-07          3.9113e-06
  6.416e-07          4.06434e-06
  6.417e-07          4.38929e-06
  6.418e-07          4.83396e-06
  6.419e-07          5.10991e-06
  6.42e-07          5.32845e-06
  6.421e-07          5.66989e-06
  6.422e-07          5.91379e-06
  6.423e-07          6.15767e-06
  6.424e-07          6.44616e-06
  6.425e-07          6.73464e-06
  6.426e-07          7.02356e-06
  6.427e-07          7.31246e-06
  6.428e-07          7.83309e-06
  6.429e-07          8.2751e-06
  6.43e-07          8.68354e-06
  6.431e-07          9.1736e-06
  6.432e-07          9.55018e-06
  6.433e-07          9.94411e-06
  6.434e-07          1.0349e-05
  6.435e-07          1.07759e-05
  6.436e-07          1.13713e-05
  6.437e-07          1.18368e-05
  6.438e-07          1.23199e-05
  6.439e-07          1.28202e-05
  6.44e-07          1.33487e-05
  6.441e-07          1.40961e-05
  6.442e-07          1.50777e-05
  6.443e-07          1.57698e-05
  6.444e-07          1.64607e-05
  6.445e-07          1.71534e-05
  6.446e-07          1.78449e-05
  6.447e-07          1.8843e-05
  6.448e-07          2.00286e-05
  6.449e-07          2.1735e-05
  6.45e-07          2.28934e-05
  6.451e-07          2.37751e-05
  6.452e-07          2.48136e-05
  6.453e-07          2.59472e-05
  6.454e-07          2.75055e-05
  6.455e-07          2.87488e-05
  6.456e-07          3.02627e-05
  6.457e-07          3.1842e-05
  6.458e-07          3.35116e-05
  6.459e-07          3.60056e-05
  6.46e-07          3.80746e-05
  6.461e-07          4.32583e-05
  6.462e-07          4.75189e-05
  6.463e-07          5.18679e-05
  6.464e-07          5.65237e-05
  6.465e-07          6.12683e-05
  6.466e-07          6.57866e-05
  6.467e-07          7.03658e-05
  6.468e-07          7.66086e-05
  6.469e-07          8.33976e-05
  6.47e-07          9.05435e-05
  6.471e-07          9.8571e-05
  6.472e-07          0.000110155
  6.473e-07          0.000118854
  6.474e-07          0.000129335
  6.475e-07          0.000142546
  6.476e-07          0.000156146
  6.477e-07          0.000174556
  6.478e-07          0.000189767
  6.479e-07          0.000209376
  6.48e-07          0.000238905
  6.481e-07          0.000261172
  6.482e-07          0.000295951
  6.483e-07          0.000335288
  6.484e-07          0.000374631
  6.485e-07          0.000410511
  6.486e-07          0.000446359
  6.487e-07          0.000498641
  6.488e-07          0.000552629
  6.489e-07          0.000617157
  6.49e-07          0.000723241
  6.491e-07          0.000818075
  6.492e-07          0.000926375
  6.493e-07          0.00104722
  6.494e-07          0.00118585
  6.495e-07          0.00139825
  6.496e-07          0.00158113
  6.497e-07          0.00180477
  6.498e-07          0.00217288
  6.499e-07          0.00243993
  6.5e-07          0.00280235
  6.501e-07          0.00327418
  6.502e-07          0.00376442
  6.503e-07          0.00476042
  6.504e-07          0.00558137
  6.505e-07          0.00640179
  6.506e-07          0.00728712
  6.507e-07          0.00817189
  6.508e-07          0.0100516
  6.509e-07          0.0119114
  6.51e-07          0.0139655
  6.511e-07          0.0164475
  6.512e-07          0.0195495
  6.513e-07          0.0243714
  6.514e-07          0.0287177
  6.515e-07          0.0339101
  6.516e-07          0.0399352
  6.517e-07          0.0471577
  6.518e-07          0.0583459
  6.519e-07          0.0682422
  6.52e-07          0.0794552
  6.521e-07          0.0949663
  6.522e-07          0.116878
  6.523e-07          0.13117
  6.524e-07          0.145455
  6.525e-07          0.157824
  6.526e-07          0.170188
  6.527e-07          0.17938
  6.528e-07          0.188568
  6.529e-07          0.199155
  6.53e-07          0.207544
  6.531e-07          0.216248
  6.532e-07          0.217713
  6.533e-07          0.222223
  6.534e-07          0.226827
  6.535e-07          0.229925
  6.536e-07          0.229895
  6.537e-07          0.229866
  6.538e-07          0.229836
  6.539e-07          0.229807
  6.54e-07          0.229777
  6.541e-07          0.229751
  6.542e-07          0.229755
  6.543e-07          0.229771
  6.544e-07          0.229792
  6.545e-07          0.229814
  6.546e-07          0.229788
  6.547e-07          0.229761
  6.548e-07          0.229736
  6.549e-07          0.22971
  6.55e-07          0.229684
  6.551e-07          0.229674
  6.552e-07          0.229664
  6.553e-07          0.229655
  6.554e-07          0.229645
  6.555e-07          0.229635
  6.556e-07          0.229569
  6.557e-07          0.229504
  6.558e-07          0.229438
  6.559e-07          0.22944
  6.56e-07          0.229442
  6.561e-07          0.229423
  6.562e-07          0.229373
  6.563e-07          0.229163
  6.564e-07          0.228953
  6.565e-07          0.228865
  6.566e-07          0.228777
  6.567e-07          0.228757
  6.568e-07          0.228737
  6.569e-07          0.228717
  6.57e-07          0.228698
  6.571e-07          0.228671
  6.572e-07          0.228643
  6.573e-07          0.228342
  6.574e-07          0.228259
  6.575e-07          0.227994
  6.576e-07          0.227843
  6.577e-07          0.227542
  6.578e-07          0.227515
  6.579e-07          0.227488
  6.58e-07          0.227461
  6.581e-07          0.22743
  6.582e-07          0.227398
  6.583e-07          0.227163
  6.584e-07          0.226995
  6.585e-07          0.226827
  6.586e-07          0.226659
  6.587e-07          0.226491
  6.588e-07          0.226392
  6.589e-07          0.22609
  6.59e-07          0.225945
  6.591e-07          0.225482
  6.592e-07          0.225019
  6.593e-07          0.224556
  6.594e-07          0.224094
  6.595e-07          0.223509
  6.596e-07          0.221556
  6.597e-07          0.21795
  6.598e-07          0.216067
  6.599e-07          0.212373
  6.6e-07          0.206098
  6.601e-07          0.19685
  6.602e-07          0.174617
  6.603e-07          0.161681
  6.604e-07          0.148914
  6.605e-07          0.135486
  6.606e-07          0.122223
  6.607e-07          0.110547
  6.608e-07          0.0989848
  6.609e-07          0.0833497
  6.61e-07          0.0721497
  6.611e-07          0.0604083
  6.612e-07          0.0475916
  6.613e-07          0.0394648
  6.614e-07          0.0325905
  6.615e-07          0.0270521
  6.616e-07          0.0226638
  6.617e-07          0.017928
  6.618e-07          0.014956
  6.619e-07          0.0125186
  6.62e-07          0.00977628
  6.621e-07          0.00779984
  6.622e-07          0.00658962
  6.623e-07          0.00460802
  6.624e-07          0.00358611
  6.625e-07          0.00268596
  6.626e-07          0.00206944
  6.627e-07          0.00153295
  6.628e-07          0.00122463
  6.629e-07          0.000950859
  6.63e-07          0.000713548
  6.631e-07          0.000577825
  6.632e-07          0.000464845
  6.633e-07          0.000349926
  6.634e-07          0.000273406
  6.635e-07          0.000210847
  6.636e-07          0.000158449
  6.637e-07          0.000116927
  6.638e-07          7.65813e-05
  6.639e-07          4.62003e-05
  6.64e-07          3.0847e-05
  6.641e-07          2.61134e-05
  6.642e-07          2.3528e-05
  6.643e-07          2.12236e-05
  6.644e-07          1.78834e-05
  6.645e-07          1.62609e-05
  6.646e-07          1.4639e-05
  6.647e-07          1.35173e-05
  6.648e-07          1.2396e-05
  6.649e-07          1.13251e-05
  6.65e-07          1.03613e-05
  6.651e-07          9.33812e-06
  6.652e-07          8.48307e-06
  6.653e-07          7.49357e-06
  6.654e-07          6.61955e-06
  6.655e-07          6.25207e-06
  6.656e-07          5.81305e-06
  6.657e-07          5.18184e-06
  6.658e-07          4.76861e-06
  6.659e-07          4.36102e-06
  6.66e-07          4.01149e-06
  6.661e-07          3.71926e-06
  6.662e-07          3.35304e-06
  6.663e-07          2.94337e-06
  6.664e-07          2.72683e-06
  6.665e-07          2.51044e-06
  6.666e-07          2.33377e-06
  6.667e-07          2.15716e-06
  6.668e-07          2.03068e-06
  6.669e-07          1.90424e-06
  6.67e-07          1.72911e-06
  6.671e-07          1.61347e-06
  6.672e-07          1.50651e-06
  6.673e-07          1.40574e-06
  6.674e-07          1.31254e-06
  6.675e-07          1.20818e-06
  6.676e-07          1.14318e-06
  6.677e-07          1.07467e-06
  6.678e-07          9.89403e-07
  6.679e-07          9.3255e-07
  6.68e-07          8.76644e-07
  6.681e-07          8.29427e-07
  6.682e-07          7.85095e-07
  6.683e-07          7.22652e-07
  6.684e-07          6.56222e-07
  6.685e-07          6.23814e-07
  6.686e-07          5.91427e-07
  6.687e-07          5.72086e-07
  6.688e-07          5.52401e-07
  6.689e-07          5.37808e-07
  6.69e-07          5.12548e-07
  6.691e-07          4.78406e-07
  6.692e-07          4.52671e-07
  6.693e-07          4.28426e-07
  6.694e-07          4.05378e-07
  6.695e-07          3.83665e-07
  6.696e-07          3.60555e-07
  6.697e-07          3.43542e-07
  6.698e-07          3.29605e-07
  6.699e-07          3.20623e-07
  6.7e-07          3.07699e-07
  6.701e-07          2.93054e-07
  6.702e-07          2.87575e-07
  6.703e-07          2.67477e-07
  6.704e-07          2.56185e-07
  6.705e-07          2.44952e-07
  6.706e-07          2.3069e-07
  6.707e-07          2.16664e-07
  6.708e-07          2.05356e-07
  6.709e-07          1.94229e-07
  6.71e-07          1.85012e-07
  6.711e-07          1.77489e-07
  6.712e-07          1.69081e-07
  6.713e-07          1.63303e-07
  6.714e-07          1.63386e-07
  6.715e-07          1.61483e-07
  6.716e-07          1.59231e-07
  6.717e-07          1.65057e-07
  6.718e-07          1.65004e-07
  6.719e-07          1.66437e-07
  6.72e-07          1.70805e-07
  6.721e-07          1.6758e-07
  6.722e-07          1.60353e-07
  6.723e-07          1.52307e-07
  6.724e-07          1.43574e-07
  6.725e-07          1.43582e-07
  6.726e-07          1.43503e-07
  6.727e-07          1.45455e-07
  6.728e-07          1.47406e-07
  6.729e-07          1.4972e-07
  6.73e-07          1.49426e-07
  6.731e-07          1.40816e-07
  6.732e-07          1.2453e-07
  6.733e-07          1.09784e-07
  6.734e-07          1.04474e-07
  6.735e-07          1.01497e-07
  6.736e-07          0
