#####################################################################
#  MagAO-X Filter Curve
#
# magaox_sci1-rp_bs-65-35_scibs-ri_atm.dat
#
# Science (camssci1) r' bandpass with 65/35 B/S, sci ri, with atmosphere
#
# Characteristics:
#    lambda_0:  6.4739e-07 [central wavelength, in m]
#    w_eff:     2.96738e-08 [effective width, in m]
#    FWHM:      1.07582e-07 [full-width at half max., in m]
#    Trans_max: 0.0429255 [maximum transmission]
#
# Vega Zero Point Flux Densities (calculated):
#    f_lambda_0: 0.0219818 [W/m^3 above atm]
#    f_nu_0:     3.06097e-23 [Jy above atm]
#    f_phot_0:   7.16394e+16 [photons/s/m^3 above atm]
#
# Vega Zero Point Fluxes (calculated):
#    F_W_0: 1.98244e-08 [W at telescope aperture]
#    F_phot_0:   2.77336e+09 [photons/s at detector]
#
#####################################################################
# lambda [m]             transmission
#-------------------------------------------------
  3.705e-07          0
  3.706e-07          2.67235e-10
  3.707e-07          2.6618e-10
  3.708e-07          2.65113e-10
  3.709e-07          2.63763e-10
  3.71e-07          2.62404e-10
  3.711e-07          2.73744e-10
  3.712e-07          2.85206e-10
  3.713e-07          2.97076e-10
  3.714e-07          3.09156e-10
  3.715e-07          3.21449e-10
  3.716e-07          3.57844e-10
  3.717e-07          3.94198e-10
  3.718e-07          4.30577e-10
  3.719e-07          4.66919e-10
  3.72e-07          5.02839e-10
  3.721e-07          6.22866e-10
  3.722e-07          7.45467e-10
  3.723e-07          8.69345e-10
  3.724e-07          9.94505e-10
  3.725e-07          1.12096e-09
  3.726e-07          1.43151e-09
  3.727e-07          1.75229e-09
  3.728e-07          2.08828e-09
  3.729e-07          2.43583e-09
  3.73e-07          2.79515e-09
  3.731e-07          2.9506e-09
  3.732e-07          3.1081e-09
  3.733e-07          3.25283e-09
  3.734e-07          3.40018e-09
  3.735e-07          3.54844e-09
  3.736e-07          3.60405e-09
  3.737e-07          3.66017e-09
  3.738e-07          3.72796e-09
  3.739e-07          3.79659e-09
  3.74e-07          3.8661e-09
  3.741e-07          4.17636e-09
  3.742e-07          4.48656e-09
  3.743e-07          4.79666e-09
  3.744e-07          5.1129e-09
  3.745e-07          5.43147e-09
  3.746e-07          5.75523e-09
  3.747e-07          6.08398e-09
  3.748e-07          6.42071e-09
  3.749e-07          6.7456e-09
  3.75e-07          7.07431e-09
  3.751e-07          6.71142e-09
  3.752e-07          6.3391e-09
  3.753e-07          5.96296e-09
  3.754e-07          5.59001e-09
  3.755e-07          5.21463e-09
  3.756e-07          4.9654e-09
  3.757e-07          4.71388e-09
  3.758e-07          4.46006e-09
  3.759e-07          4.21343e-09
  3.76e-07          3.96331e-09
  3.761e-07          4.04005e-09
  3.762e-07          4.11339e-09
  3.763e-07          4.18767e-09
  3.764e-07          4.24906e-09
  3.765e-07          4.31105e-09
  3.766e-07          4.57299e-09
  3.767e-07          4.83301e-09
  3.768e-07          5.09107e-09
  3.769e-07          5.34802e-09
  3.77e-07          5.61232e-09
  3.771e-07          6.01465e-09
  3.772e-07          6.4253e-09
  3.773e-07          6.84098e-09
  3.774e-07          7.26477e-09
  3.775e-07          7.70841e-09
  3.776e-07          7.70482e-09
  3.777e-07          7.70819e-09
  3.778e-07          7.71046e-09
  3.779e-07          7.7116e-09
  3.78e-07          7.6857e-09
  3.781e-07          7.52107e-09
  3.782e-07          7.35505e-09
  3.783e-07          7.18764e-09
  3.784e-07          7.01685e-09
  3.785e-07          6.85239e-09
  3.786e-07          6.95879e-09
  3.787e-07          7.06904e-09
  3.788e-07          7.17972e-09
  3.789e-07          7.29084e-09
  3.79e-07          7.41655e-09
  3.791e-07          7.91928e-09
  3.792e-07          8.43217e-09
  3.793e-07          8.95534e-09
  3.794e-07          9.4791e-09
  3.795e-07          9.77516e-09
  3.796e-07          1.01739e-08
  3.797e-07          1.05784e-08
  3.798e-07          1.09921e-08
  3.799e-07          1.14119e-08
  3.8e-07          1.18376e-08
  3.801e-07          1.166e-08
  3.802e-07          1.14765e-08
  3.803e-07          1.12869e-08
  3.804e-07          1.10912e-08
  3.805e-07          1.08839e-08
  3.806e-07          1.06723e-08
  3.807e-07          1.04543e-08
  3.808e-07          1.02376e-08
  3.809e-07          1.00139e-08
  3.81e-07          9.78309e-09
  3.811e-07          1.06866e-08
  3.812e-07          1.16154e-08
  3.813e-07          1.25752e-08
  3.814e-07          1.35667e-08
  3.815e-07          1.45905e-08
  3.816e-07          1.43787e-08
  3.817e-07          1.41646e-08
  3.818e-07          1.39484e-08
  3.819e-07          1.37372e-08
  3.82e-07          1.35237e-08
  3.821e-07          1.44227e-08
  3.822e-07          1.5351e-08
  3.823e-07          1.63054e-08
  3.824e-07          1.72901e-08
  3.825e-07          1.83058e-08
  3.826e-07          1.75452e-08
  3.827e-07          1.67432e-08
  3.828e-07          1.59306e-08
  3.829e-07          1.51075e-08
  3.83e-07          1.42892e-08
  3.831e-07          1.40926e-08
  3.832e-07          1.3902e-08
  3.833e-07          1.36947e-08
  3.834e-07          1.34786e-08
  3.835e-07          1.32536e-08
  3.836e-07          1.41733e-08
  3.837e-07          1.51494e-08
  3.838e-07          1.61569e-08
  3.839e-07          1.71965e-08
  3.84e-07          1.82733e-08
  3.841e-07          1.76613e-08
  3.842e-07          1.69614e-08
  3.843e-07          1.62506e-08
  3.844e-07          1.55356e-08
  3.845e-07          1.48088e-08
  3.846e-07          1.55378e-08
  3.847e-07          1.62974e-08
  3.848e-07          1.70646e-08
  3.849e-07          1.78395e-08
  3.85e-07          1.86219e-08
  3.851e-07          2.00067e-08
  3.852e-07          2.12021e-08
  3.853e-07          2.27314e-08
  3.854e-07          2.43295e-08
  3.855e-07          2.59888e-08
  3.856e-07          2.65772e-08
  3.857e-07          2.71747e-08
  3.858e-07          2.76266e-08
  3.859e-07          2.80826e-08
  3.86e-07          2.85427e-08
  3.861e-07          2.91065e-08
  3.862e-07          2.96778e-08
  3.863e-07          3.03171e-08
  3.864e-07          3.09664e-08
  3.865e-07          3.16203e-08
  3.866e-07          3.52905e-08
  3.867e-07          3.90437e-08
  3.868e-07          4.29107e-08
  3.869e-07          4.68558e-08
  3.87e-07          5.08912e-08
  3.871e-07          4.94433e-08
  3.872e-07          4.79857e-08
  3.873e-07          4.63703e-08
  3.874e-07          4.47267e-08
  3.875e-07          4.30546e-08
  3.876e-07          4.36607e-08
  3.877e-07          4.42722e-08
  3.878e-07          4.49567e-08
  3.879e-07          4.56339e-08
  3.88e-07          4.63181e-08
  3.881e-07          4.51856e-08
  3.882e-07          4.40102e-08
  3.883e-07          4.27794e-08
  3.884e-07          4.15475e-08
  3.885e-07          4.02538e-08
  3.886e-07          3.67794e-08
  3.887e-07          3.32107e-08
  3.888e-07          2.95463e-08
  3.889e-07          2.5713e-08
  3.89e-07          2.17807e-08
  3.891e-07          2.11911e-08
  3.892e-07          2.05827e-08
  3.893e-07          1.99599e-08
  3.894e-07          1.93538e-08
  3.895e-07          1.87249e-08
  3.896e-07          1.89338e-08
  3.897e-07          1.91519e-08
  3.898e-07          1.93708e-08
  3.899e-07          1.96297e-08
  3.9e-07          1.98764e-08
  3.901e-07          2.10813e-08
  3.902e-07          2.23134e-08
  3.903e-07          2.34845e-08
  3.904e-07          2.4675e-08
  3.905e-07          2.58849e-08
  3.906e-07          2.81954e-08
  3.907e-07          3.05404e-08
  3.908e-07          3.2935e-08
  3.909e-07          3.5367e-08
  3.91e-07          3.78984e-08
  3.911e-07          4.23703e-08
  3.912e-07          4.69394e-08
  3.913e-07          5.16074e-08
  3.914e-07          5.63756e-08
  3.915e-07          6.13581e-08
  3.916e-07          6.32866e-08
  3.917e-07          6.52442e-08
  3.918e-07          6.71802e-08
  3.919e-07          6.91429e-08
  3.92e-07          7.10237e-08
  3.921e-07          6.98991e-08
  3.922e-07          6.87234e-08
  3.923e-07          6.75131e-08
  3.924e-07          6.62674e-08
  3.925e-07          6.50498e-08
  3.926e-07          6.54462e-08
  3.927e-07          6.58439e-08
  3.928e-07          6.62429e-08
  3.929e-07          6.66303e-08
  3.93e-07          6.71033e-08
  3.931e-07          6.90289e-08
  3.932e-07          7.09751e-08
  3.933e-07          7.2964e-08
  3.934e-07          7.49962e-08
  3.935e-07          7.59218e-08
  3.936e-07          7.61615e-08
  3.937e-07          7.63961e-08
  3.938e-07          7.66255e-08
  3.939e-07          7.68616e-08
  3.94e-07          7.70922e-08
  3.941e-07          7.38428e-08
  3.942e-07          7.05154e-08
  3.943e-07          6.70771e-08
  3.944e-07          6.35616e-08
  3.945e-07          5.99679e-08
  3.946e-07          5.79899e-08
  3.947e-07          5.595e-08
  3.948e-07          5.37885e-08
  3.949e-07          5.1502e-08
  3.95e-07          4.90655e-08
  3.951e-07          4.80329e-08
  3.952e-07          4.69827e-08
  3.953e-07          4.59148e-08
  3.954e-07          4.48064e-08
  3.955e-07          4.3681e-08
  3.956e-07          4.43473e-08
  3.957e-07          4.50338e-08
  3.958e-07          4.57287e-08
  3.959e-07          4.64321e-08
  3.96e-07          4.71441e-08
  3.961e-07          5.04703e-08
  3.962e-07          5.38487e-08
  3.963e-07          5.72797e-08
  3.964e-07          6.07261e-08
  3.965e-07          6.42218e-08
  3.966e-07          7.14485e-08
  3.967e-07          7.87185e-08
  3.968e-07          8.61603e-08
  3.969e-07          9.3754e-08
  3.97e-07          1.01502e-07
  3.971e-07          1.0144e-07
  3.972e-07          1.01478e-07
  3.973e-07          1.01504e-07
  3.974e-07          1.01519e-07
  3.975e-07          1.01448e-07
  3.976e-07          1.02692e-07
  3.977e-07          1.03995e-07
  3.978e-07          1.05362e-07
  3.979e-07          1.06745e-07
  3.98e-07          1.08146e-07
  3.981e-07          1.0993e-07
  3.982e-07          1.11555e-07
  3.983e-07          1.13196e-07
  3.984e-07          1.14851e-07
  3.985e-07          1.16481e-07
  3.986e-07          1.18269e-07
  3.987e-07          1.20108e-07
  3.988e-07          1.21968e-07
  3.989e-07          1.23903e-07
  3.99e-07          1.25862e-07
  3.991e-07          1.28452e-07
  3.992e-07          1.31082e-07
  3.993e-07          1.33838e-07
  3.994e-07          1.36639e-07
  3.995e-07          1.39486e-07
  3.996e-07          1.4148e-07
  3.997e-07          1.43501e-07
  3.998e-07          1.45393e-07
  3.999e-07          1.47309e-07
  4e-07          1.493e-07
  4.001e-07          1.48074e-07
  4.002e-07          1.46811e-07
  4.003e-07          1.45548e-07
  4.004e-07          1.44246e-07
  4.005e-07          1.42906e-07
  4.006e-07          1.40196e-07
  4.007e-07          1.37317e-07
  4.008e-07          1.34409e-07
  4.009e-07          1.31463e-07
  4.01e-07          1.28512e-07
  4.011e-07          1.26925e-07
  4.012e-07          1.25334e-07
  4.013e-07          1.2374e-07
  4.014e-07          1.22164e-07
  4.015e-07          1.20584e-07
  4.016e-07          1.27051e-07
  4.017e-07          1.33626e-07
  4.018e-07          1.40387e-07
  4.019e-07          1.47355e-07
  4.02e-07          1.54515e-07
  4.021e-07          1.61095e-07
  4.022e-07          1.6775e-07
  4.023e-07          1.74238e-07
  4.024e-07          1.80783e-07
  4.025e-07          1.87386e-07
  4.026e-07          1.79532e-07
  4.027e-07          1.7161e-07
  4.028e-07          1.6359e-07
  4.029e-07          1.55524e-07
  4.03e-07          1.47389e-07
  4.031e-07          1.43317e-07
  4.032e-07          1.39248e-07
  4.033e-07          1.35182e-07
  4.034e-07          1.31104e-07
  4.035e-07          1.27008e-07
  4.036e-07          1.28791e-07
  4.037e-07          1.3059e-07
  4.038e-07          1.32404e-07
  4.039e-07          1.34199e-07
  4.04e-07          1.3601e-07
  4.041e-07          1.40754e-07
  4.042e-07          1.45665e-07
  4.043e-07          1.50681e-07
  4.044e-07          1.55804e-07
  4.045e-07          1.61036e-07
  4.046e-07          1.64285e-07
  4.047e-07          1.67544e-07
  4.048e-07          1.70813e-07
  4.049e-07          1.74039e-07
  4.05e-07          1.77273e-07
  4.051e-07          1.81578e-07
  4.052e-07          1.85948e-07
  4.053e-07          1.90442e-07
  4.054e-07          1.95007e-07
  4.055e-07          1.99655e-07
  4.056e-07          2.02368e-07
  4.057e-07          2.05088e-07
  4.058e-07          2.07816e-07
  4.059e-07          2.10551e-07
  4.06e-07          2.1319e-07
  4.061e-07          2.16498e-07
  4.062e-07          2.19846e-07
  4.063e-07          2.23335e-07
  4.064e-07          2.26868e-07
  4.065e-07          2.30446e-07
  4.066e-07          2.33449e-07
  4.067e-07          2.36602e-07
  4.068e-07          2.39791e-07
  4.069e-07          2.43016e-07
  4.07e-07          2.46045e-07
  4.071e-07          2.47224e-07
  4.072e-07          2.48394e-07
  4.073e-07          2.49555e-07
  4.074e-07          2.50754e-07
  4.075e-07          2.51944e-07
  4.076e-07          2.60292e-07
  4.077e-07          2.68724e-07
  4.078e-07          2.77375e-07
  4.079e-07          2.86119e-07
  4.08e-07          2.94956e-07
  4.081e-07          3.03409e-07
  4.082e-07          3.11995e-07
  4.083e-07          3.20715e-07
  4.084e-07          3.29645e-07
  4.085e-07          3.38717e-07
  4.086e-07          3.23529e-07
  4.087e-07          3.08125e-07
  4.088e-07          2.92569e-07
  4.089e-07          2.76784e-07
  4.09e-07          2.60769e-07
  4.091e-07          2.50876e-07
  4.092e-07          2.40766e-07
  4.093e-07          2.30554e-07
  4.094e-07          2.2024e-07
  4.095e-07          2.09871e-07
  4.096e-07          2.08765e-07
  4.097e-07          2.0763e-07
  4.098e-07          2.06467e-07
  4.099e-07          2.0536e-07
  4.1e-07          2.04223e-07
  4.101e-07          2.0579e-07
  4.102e-07          2.0722e-07
  4.103e-07          2.08645e-07
  4.104e-07          2.10063e-07
  4.105e-07          2.11522e-07
  4.106e-07          2.16763e-07
  4.107e-07          2.22074e-07
  4.108e-07          2.27439e-07
  4.109e-07          2.32926e-07
  4.11e-07          2.38487e-07
  4.111e-07          2.42792e-07
  4.112e-07          2.47103e-07
  4.113e-07          2.51327e-07
  4.114e-07          2.55554e-07
  4.115e-07          2.59783e-07
  4.116e-07          2.65481e-07
  4.117e-07          2.71249e-07
  4.118e-07          2.77086e-07
  4.119e-07          2.82993e-07
  4.12e-07          2.89164e-07
  4.121e-07          2.94424e-07
  4.122e-07          2.99741e-07
  4.123e-07          3.05084e-07
  4.124e-07          3.10277e-07
  4.125e-07          3.15519e-07
  4.126e-07          3.19724e-07
  4.127e-07          3.24123e-07
  4.128e-07          3.28555e-07
  4.129e-07          3.33054e-07
  4.13e-07          3.37588e-07
  4.131e-07          3.399e-07
  4.132e-07          3.42199e-07
  4.133e-07          3.44484e-07
  4.134e-07          3.46874e-07
  4.135e-07          3.49252e-07
  4.136e-07          3.56064e-07
  4.137e-07          3.62966e-07
  4.138e-07          3.69906e-07
  4.139e-07          3.76927e-07
  4.14e-07          3.8404e-07
  4.141e-07          3.92619e-07
  4.142e-07          4.01176e-07
  4.143e-07          4.09707e-07
  4.144e-07          4.18265e-07
  4.145e-07          4.26817e-07
  4.146e-07          4.46086e-07
  4.147e-07          4.65666e-07
  4.148e-07          4.85522e-07
  4.149e-07          5.05693e-07
  4.15e-07          5.26136e-07
  4.151e-07          5.13337e-07
  4.152e-07          5.00458e-07
  4.153e-07          4.87461e-07
  4.154e-07          4.74344e-07
  4.155e-07          4.6111e-07
  4.156e-07          4.35394e-07
  4.157e-07          4.09516e-07
  4.158e-07          3.83476e-07
  4.159e-07          3.57194e-07
  4.16e-07          3.30718e-07
  4.161e-07          3.19398e-07
  4.162e-07          3.08063e-07
  4.163e-07          2.96638e-07
  4.164e-07          2.8516e-07
  4.165e-07          2.73589e-07
  4.166e-07          2.71523e-07
  4.167e-07          2.69422e-07
  4.168e-07          2.67284e-07
  4.169e-07          2.6511e-07
  4.17e-07          2.62988e-07
  4.171e-07          2.66885e-07
  4.172e-07          2.70825e-07
  4.173e-07          2.74716e-07
  4.174e-07          2.78649e-07
  4.175e-07          2.82623e-07
  4.176e-07          2.88228e-07
  4.177e-07          2.93959e-07
  4.178e-07          2.99733e-07
  4.179e-07          3.05551e-07
  4.18e-07          3.1138e-07
  4.181e-07          3.16884e-07
  4.182e-07          3.22345e-07
  4.183e-07          3.27764e-07
  4.184e-07          3.33076e-07
  4.185e-07          3.38306e-07
  4.186e-07          3.47748e-07
  4.187e-07          3.57326e-07
  4.188e-07          3.67043e-07
  4.189e-07          3.769e-07
  4.19e-07          3.86897e-07
  4.191e-07          3.95204e-07
  4.192e-07          4.03601e-07
  4.193e-07          4.12089e-07
  4.194e-07          4.20602e-07
  4.195e-07          4.29205e-07
  4.196e-07          4.36298e-07
  4.197e-07          4.43458e-07
  4.198e-07          4.50689e-07
  4.199e-07          4.57958e-07
  4.2e-07          4.65266e-07
  4.201e-07          4.70095e-07
  4.202e-07          4.74772e-07
  4.203e-07          4.79355e-07
  4.204e-07          4.83844e-07
  4.205e-07          4.88237e-07
  4.206e-07          5.00971e-07
  4.207e-07          5.13839e-07
  4.208e-07          5.26841e-07
  4.209e-07          5.39977e-07
  4.21e-07          5.5325e-07
  4.211e-07          5.72105e-07
  4.212e-07          5.91255e-07
  4.213e-07          6.10701e-07
  4.214e-07          6.30445e-07
  4.215e-07          6.5049e-07
  4.216e-07          6.67633e-07
  4.217e-07          6.8483e-07
  4.218e-07          7.02009e-07
  4.219e-07          7.18818e-07
  4.22e-07          7.35657e-07
  4.221e-07          7.47118e-07
  4.222e-07          7.58616e-07
  4.223e-07          7.70872e-07
  4.224e-07          7.83185e-07
  4.225e-07          7.94951e-07
  4.226e-07          7.85553e-07
  4.227e-07          7.76093e-07
  4.228e-07          7.66553e-07
  4.229e-07          7.56951e-07
  4.23e-07          7.47373e-07
  4.231e-07          7.20096e-07
  4.232e-07          6.92729e-07
  4.233e-07          6.65304e-07
  4.234e-07          6.37786e-07
  4.235e-07          6.10175e-07
  4.236e-07          5.88243e-07
  4.237e-07          5.66152e-07
  4.238e-07          5.43857e-07
  4.239e-07          5.21355e-07
  4.24e-07          4.98734e-07
  4.241e-07          4.87622e-07
  4.242e-07          4.76297e-07
  4.243e-07          4.64755e-07
  4.244e-07          4.52906e-07
  4.245e-07          4.40843e-07
  4.246e-07          4.33232e-07
  4.247e-07          4.25633e-07
  4.248e-07          4.18046e-07
  4.249e-07          4.10513e-07
  4.25e-07          4.02991e-07
  4.251e-07          4.03423e-07
  4.252e-07          4.03855e-07
  4.253e-07          4.04287e-07
  4.254e-07          4.04717e-07
  4.255e-07          4.05264e-07
  4.256e-07          4.13754e-07
  4.257e-07          4.2235e-07
  4.258e-07          4.30926e-07
  4.259e-07          4.39604e-07
  4.26e-07          4.48384e-07
  4.261e-07          4.58558e-07
  4.262e-07          4.6883e-07
  4.263e-07          4.79068e-07
  4.264e-07          4.89273e-07
  4.265e-07          4.99357e-07
  4.266e-07          5.17964e-07
  4.267e-07          5.36646e-07
  4.268e-07          5.55405e-07
  4.269e-07          5.74282e-07
  4.27e-07          5.93298e-07
  4.271e-07          6.23886e-07
  4.272e-07          6.54766e-07
  4.273e-07          6.85966e-07
  4.274e-07          7.17488e-07
  4.275e-07          7.49332e-07
  4.276e-07          7.81138e-07
  4.277e-07          8.1269e-07
  4.278e-07          8.43984e-07
  4.279e-07          8.74956e-07
  4.28e-07          9.05582e-07
  4.281e-07          9.19289e-07
  4.282e-07          9.33134e-07
  4.283e-07          9.46912e-07
  4.284e-07          9.60824e-07
  4.285e-07          9.74868e-07
