#####################################################################
#  MagAO-X Filter Curve
#
# magaox_sci1-ip_bs-65-35.dat
#
# Science (camssci1) i' bandpass with 65/35 B/S, without atmosphere
#
# Characteristics:
#    lambda_0:  7.61686e-07 [central wavelength, in m]
#    w_eff:     1.29286e-07 [effective width, in m]
#    FWHM:      1.39995e-07 [full-width at half max., in m]
#    Trans_max: 0.0551944 [maximum transmission]
#
# Vega Zero Point Flux Densities (calculated):
#    f_lambda_0: 0.0134551 [W/m^3 above atm]
#    f_nu_0:     2564.63 [Jy above atm]
#    f_phot_0:   5.11288e+16 [photons/s/m^3 above atm]
#
# Vega Zero Point Fluxes (calculated):
#    F_W_0: 5.28689e-08 [W at telescope aperture]
#    F_phot_0:   1.10885e+10 [photons/s at detector]
#
#####################################################################
# lambda [m]             transmission
#-------------------------------------------------
  4.999e-07          0
  5e-07          2.22298e-08
  5.001e-07          2.52728e-08
  5.002e-07          2.83268e-08
  5.003e-07          3.13891e-08
  5.004e-07          3.44619e-08
  5.005e-07          3.75548e-08
  5.006e-07          3.22612e-08
  5.007e-07          2.69461e-08
  5.008e-07          2.16096e-08
  5.009e-07          1.6252e-08
  5.01e-07          1.08728e-08
  5.011e-07          1.37393e-08
  5.012e-07          1.66129e-08
  5.013e-07          1.94966e-08
  5.014e-07          2.23903e-08
  5.015e-07          2.5294e-08
  5.016e-07          2.20662e-08
  5.017e-07          1.88269e-08
  5.018e-07          1.55762e-08
  5.019e-07          1.2314e-08
  5.02e-07          9.04033e-09
  5.021e-07          1.22045e-08
  5.022e-07          1.53795e-08
  5.023e-07          1.85654e-08
  5.024e-07          2.17649e-08
  5.025e-07          2.4976e-08
  5.026e-07          2.66158e-08
  5.027e-07          2.8262e-08
  5.028e-07          2.99148e-08
  5.029e-07          3.15733e-08
  5.03e-07          3.32317e-08
  5.031e-07          3.3532e-08
  5.032e-07          3.3833e-08
  5.033e-07          3.41313e-08
  5.034e-07          3.44305e-08
  5.035e-07          3.47305e-08
  5.036e-07          3.73621e-08
  5.037e-07          4.00021e-08
  5.038e-07          4.26506e-08
  5.039e-07          4.53075e-08
  5.04e-07          4.79729e-08
  5.041e-07          4.33e-08
  5.042e-07          3.86114e-08
  5.043e-07          3.39069e-08
  5.044e-07          2.91925e-08
  5.045e-07          2.44634e-08
  5.046e-07          2.53081e-08
  5.047e-07          2.61558e-08
  5.048e-07          2.70013e-08
  5.049e-07          2.78497e-08
  5.05e-07          2.86974e-08
  5.051e-07          2.82762e-08
  5.052e-07          2.78537e-08
  5.053e-07          2.74298e-08
  5.054e-07          2.70106e-08
  5.055e-07          2.65898e-08
  5.056e-07          2.94069e-08
  5.057e-07          3.22335e-08
  5.058e-07          3.50615e-08
  5.059e-07          3.78978e-08
  5.06e-07          4.07424e-08
  5.061e-07          3.90079e-08
  5.062e-07          3.72681e-08
  5.063e-07          3.5523e-08
  5.064e-07          3.37725e-08
  5.065e-07          3.20166e-08
  5.066e-07          3.22318e-08
  5.067e-07          3.24476e-08
  5.068e-07          3.26638e-08
  5.069e-07          3.28937e-08
  5.07e-07          3.31242e-08
  5.071e-07          3.17282e-08
  5.072e-07          3.03269e-08
  5.073e-07          2.89203e-08
  5.074e-07          2.75084e-08
  5.075e-07          2.60828e-08
  5.076e-07          2.80736e-08
  5.077e-07          3.00703e-08
  5.078e-07          3.20728e-08
  5.079e-07          3.4081e-08
  5.08e-07          3.6095e-08
  5.081e-07          3.39752e-08
  5.082e-07          3.18491e-08
  5.083e-07          2.97166e-08
  5.084e-07          2.75777e-08
  5.085e-07          2.54325e-08
  5.086e-07          2.50922e-08
  5.087e-07          2.47507e-08
  5.088e-07          2.44081e-08
  5.089e-07          2.40644e-08
  5.09e-07          2.37196e-08
  5.091e-07          2.44176e-08
  5.092e-07          2.51173e-08
  5.093e-07          2.5819e-08
  5.094e-07          2.65225e-08
  5.095e-07          2.72277e-08
  5.096e-07          3.13981e-08
  5.097e-07          3.55833e-08
  5.098e-07          3.97807e-08
  5.099e-07          4.39903e-08
  5.1e-07          4.82122e-08
  5.101e-07          4.46282e-08
  5.102e-07          4.10281e-08
  5.103e-07          3.74168e-08
  5.104e-07          3.37921e-08
  5.105e-07          3.01567e-08
  5.106e-07          3.29196e-08
  5.107e-07          3.56905e-08
  5.108e-07          3.84733e-08
  5.109e-07          4.12646e-08
  5.11e-07          4.40644e-08
  5.111e-07          4.30013e-08
  5.112e-07          4.19354e-08
  5.113e-07          4.08669e-08
  5.114e-07          3.97959e-08
  5.115e-07          3.87309e-08
  5.116e-07          3.54775e-08
  5.117e-07          3.22148e-08
  5.118e-07          2.89429e-08
  5.119e-07          2.56618e-08
  5.12e-07          2.23714e-08
  5.121e-07          2.51193e-08
  5.122e-07          2.78742e-08
  5.123e-07          3.06402e-08
  5.124e-07          3.34146e-08
  5.125e-07          3.61972e-08
  5.126e-07          3.34763e-08
  5.127e-07          3.07469e-08
  5.128e-07          2.80079e-08
  5.129e-07          2.52703e-08
  5.13e-07          2.25222e-08
  5.131e-07          2.73186e-08
  5.132e-07          3.21196e-08
  5.133e-07          3.69344e-08
  5.134e-07          4.17594e-08
  5.135e-07          4.65974e-08
  5.136e-07          4.48057e-08
  5.137e-07          4.30096e-08
  5.138e-07          4.12093e-08
  5.139e-07          3.94046e-08
  5.14e-07          3.76056e-08
  5.141e-07          3.60462e-08
  5.142e-07          3.44822e-08
  5.143e-07          3.29125e-08
  5.144e-07          3.13383e-08
  5.145e-07          2.97597e-08
  5.146e-07          3.15061e-08
  5.147e-07          3.32497e-08
  5.148e-07          3.49972e-08
  5.149e-07          3.67484e-08
  5.15e-07          3.85036e-08
  5.151e-07          3.71975e-08
  5.152e-07          3.58887e-08
  5.153e-07          3.45841e-08
  5.154e-07          3.32765e-08
  5.155e-07          3.19658e-08
  5.156e-07          3.00077e-08
  5.157e-07          2.80394e-08
  5.158e-07          2.60675e-08
  5.159e-07          2.40916e-08
  5.16e-07          2.21119e-08
  5.161e-07          2.07809e-08
  5.162e-07          1.94467e-08
  5.163e-07          1.81091e-08
  5.164e-07          1.67673e-08
  5.165e-07          1.54223e-08
  5.166e-07          1.89688e-08
  5.167e-07          2.25232e-08
  5.168e-07          2.60805e-08
  5.169e-07          2.96443e-08
  5.17e-07          3.32189e-08
  5.171e-07          3.42465e-08
  5.172e-07          3.52764e-08
  5.173e-07          3.63083e-08
  5.174e-07          3.73376e-08
  5.175e-07          3.83687e-08
  5.176e-07          3.56037e-08
  5.177e-07          3.28335e-08
  5.178e-07          3.0058e-08
  5.179e-07          2.72773e-08
  5.18e-07          2.44914e-08
  5.181e-07          2.69012e-08
  5.182e-07          2.93153e-08
  5.183e-07          3.17338e-08
  5.184e-07          3.41566e-08
  5.185e-07          3.65837e-08
  5.186e-07          3.87154e-08
  5.187e-07          4.08509e-08
  5.188e-07          4.29902e-08
  5.189e-07          4.51332e-08
  5.19e-07          4.72801e-08
  5.191e-07          5.03199e-08
  5.192e-07          5.3366e-08
  5.193e-07          5.64183e-08
  5.194e-07          5.9477e-08
  5.195e-07          6.25437e-08
  5.196e-07          5.58414e-08
  5.197e-07          4.91245e-08
  5.198e-07          4.23933e-08
  5.199e-07          3.56476e-08
  5.2e-07          2.88914e-08
  5.201e-07          3.34913e-08
  5.202e-07          3.81016e-08
  5.203e-07          4.27094e-08
  5.204e-07          4.73249e-08
  5.205e-07          5.19482e-08
  5.206e-07          4.73167e-08
  5.207e-07          4.26816e-08
  5.208e-07          3.80379e-08
  5.209e-07          3.33854e-08
  5.21e-07          2.87242e-08
  5.211e-07          2.89698e-08
  5.212e-07          2.92129e-08
  5.213e-07          2.94563e-08
  5.214e-07          2.9705e-08
  5.215e-07          2.99542e-08
  5.216e-07          3.32904e-08
  5.217e-07          3.6633e-08
  5.218e-07          3.99753e-08
  5.219e-07          4.33229e-08
  5.22e-07          4.66758e-08
  5.221e-07          4.32819e-08
  5.222e-07          3.98825e-08
  5.223e-07          3.64776e-08
  5.224e-07          3.30671e-08
  5.225e-07          2.9651e-08
  5.226e-07          3.26534e-08
  5.227e-07          3.56607e-08
  5.228e-07          3.86726e-08
  5.229e-07          4.16893e-08
  5.23e-07          4.47109e-08
  5.231e-07          4.36982e-08
  5.232e-07          4.26966e-08
  5.233e-07          4.16926e-08
  5.234e-07          4.06864e-08
  5.235e-07          3.9666e-08
  5.236e-07          3.62665e-08
  5.237e-07          3.28615e-08
  5.238e-07          2.94509e-08
  5.239e-07          2.60415e-08
  5.24e-07          2.26249e-08
  5.241e-07          2.36629e-08
  5.242e-07          2.46965e-08
  5.243e-07          2.57318e-08
  5.244e-07          2.67687e-08
  5.245e-07          2.78072e-08
  5.246e-07          3.17659e-08
  5.247e-07          3.57308e-08
  5.248e-07          3.9702e-08
  5.249e-07          4.36793e-08
  5.25e-07          4.76628e-08
  5.251e-07          4.49231e-08
  5.252e-07          4.21799e-08
  5.253e-07          3.94329e-08
  5.254e-07          3.66824e-08
  5.255e-07          3.39282e-08
  5.256e-07          3.04414e-08
  5.257e-07          2.69499e-08
  5.258e-07          2.34539e-08
  5.259e-07          1.99533e-08
  5.26e-07          1.64518e-08
  5.261e-07          2.05138e-08
  5.262e-07          2.45827e-08
  5.263e-07          2.86586e-08
  5.264e-07          3.27426e-08
  5.265e-07          3.68339e-08
  5.266e-07          4.09325e-08
  5.267e-07          4.50265e-08
  5.268e-07          4.91256e-08
  5.269e-07          5.32299e-08
  5.27e-07          5.73394e-08
  5.271e-07          5.47269e-08
  5.272e-07          5.21109e-08
  5.273e-07          4.94915e-08
  5.274e-07          4.68687e-08
  5.275e-07          4.42423e-08
  5.276e-07          4.51264e-08
  5.277e-07          4.60118e-08
  5.278e-07          4.68981e-08
  5.279e-07          4.77855e-08
  5.28e-07          4.86741e-08
  5.281e-07          4.69737e-08
  5.282e-07          4.52704e-08
  5.283e-07          4.35643e-08
  5.284e-07          4.18554e-08
  5.285e-07          4.01464e-08
  5.286e-07          3.78519e-08
  5.287e-07          3.55534e-08
  5.288e-07          3.32488e-08
  5.289e-07          3.09403e-08
  5.29e-07          2.86281e-08
  5.291e-07          3.17163e-08
  5.292e-07          3.48048e-08
  5.293e-07          3.78975e-08
  5.294e-07          4.09922e-08
  5.295e-07          4.4091e-08
  5.296e-07          4.12798e-08
  5.297e-07          3.84649e-08
  5.298e-07          3.56463e-08
  5.299e-07          3.28242e-08
  5.3e-07          2.99983e-08
  5.301e-07          2.96378e-08
  5.302e-07          2.92768e-08
  5.303e-07          2.89154e-08
  5.304e-07          2.85536e-08
  5.305e-07          2.81914e-08
  5.306e-07          3.05493e-08
  5.307e-07          3.29105e-08
  5.308e-07          3.5275e-08
  5.309e-07          3.7643e-08
  5.31e-07          4.00171e-08
  5.311e-07          3.56192e-08
  5.312e-07          3.12138e-08
  5.313e-07          2.6794e-08
  5.314e-07          2.2369e-08
  5.315e-07          1.79389e-08
  5.316e-07          2.06595e-08
  5.317e-07          2.33894e-08
  5.318e-07          2.61238e-08
  5.319e-07          2.88627e-08
  5.32e-07          3.15981e-08
  5.321e-07          3.4979e-08
  5.322e-07          3.83635e-08
  5.323e-07          4.17514e-08
  5.324e-07          4.5143e-08
  5.325e-07          4.8538e-08
  5.326e-07          4.89462e-08
  5.327e-07          4.93548e-08
  5.328e-07          4.97638e-08
  5.329e-07          5.01732e-08
  5.33e-07          5.0583e-08
  5.331e-07          4.74806e-08
  5.332e-07          4.43733e-08
  5.333e-07          4.12609e-08
  5.334e-07          3.81335e-08
  5.335e-07          3.50028e-08
  5.336e-07          3.47811e-08
  5.337e-07          3.45591e-08
  5.338e-07          3.43369e-08
  5.339e-07          3.41144e-08
  5.34e-07          3.38916e-08
  5.341e-07          3.70478e-08
  5.342e-07          4.02076e-08
  5.343e-07          4.33707e-08
  5.344e-07          4.65372e-08
  5.345e-07          4.97182e-08
  5.346e-07          5.00956e-08
  5.347e-07          5.04734e-08
  5.348e-07          5.08516e-08
  5.349e-07          5.12324e-08
  5.35e-07          5.16137e-08
  5.351e-07          5.00453e-08
  5.352e-07          4.84621e-08
  5.353e-07          4.68777e-08
  5.354e-07          4.52917e-08
  5.355e-07          4.37043e-08
  5.356e-07          4.03618e-08
  5.357e-07          3.70164e-08
  5.358e-07          3.3668e-08
  5.359e-07          3.03167e-08
  5.36e-07          2.69625e-08
  5.361e-07          3.07342e-08
  5.362e-07          3.45092e-08
  5.363e-07          3.82876e-08
  5.364e-07          4.20695e-08
  5.365e-07          4.58547e-08
  5.366e-07          4.39009e-08
  5.367e-07          4.19447e-08
  5.368e-07          3.9986e-08
  5.369e-07          3.80249e-08
  5.37e-07          3.6066e-08
  5.371e-07          3.75891e-08
  5.372e-07          3.91142e-08
  5.373e-07          4.06414e-08
  5.374e-07          4.21708e-08
  5.375e-07          4.37023e-08
  5.376e-07          4.60107e-08
  5.377e-07          4.8321e-08
  5.378e-07          5.06331e-08
  5.379e-07          5.29472e-08
  5.38e-07          5.52631e-08
  5.381e-07          5.6695e-08
  5.382e-07          5.81283e-08
  5.383e-07          5.95627e-08
  5.384e-07          6.09985e-08
  5.385e-07          6.24355e-08
  5.386e-07          6.06084e-08
  5.387e-07          5.87796e-08
  5.388e-07          5.69491e-08
  5.389e-07          5.5117e-08
  5.39e-07          5.32831e-08
  5.391e-07          4.9569e-08
  5.392e-07          4.58507e-08
  5.393e-07          4.21282e-08
  5.394e-07          3.84013e-08
  5.395e-07          3.46635e-08
  5.396e-07          3.87779e-08
  5.397e-07          4.28955e-08
  5.398e-07          4.7016e-08
  5.399e-07          5.11396e-08
  5.4e-07          5.52663e-08
  5.401e-07          5.04856e-08
  5.402e-07          4.57004e-08
  5.403e-07          4.09105e-08
  5.404e-07          3.61162e-08
  5.405e-07          3.13233e-08
  5.406e-07          3.29676e-08
  5.407e-07          3.46141e-08
  5.408e-07          3.62629e-08
  5.409e-07          3.79162e-08
  5.41e-07          3.95719e-08
  5.411e-07          3.83423e-08
  5.412e-07          3.71015e-08
  5.413e-07          3.586e-08
  5.414e-07          3.46176e-08
  5.415e-07          3.33745e-08
  5.416e-07          4.07445e-08
  5.417e-07          4.81208e-08
  5.418e-07          5.55037e-08
  5.419e-07          6.28928e-08
  5.42e-07          7.02882e-08
  5.421e-07          6.70737e-08
  5.422e-07          6.38564e-08
  5.423e-07          6.06517e-08
  5.424e-07          5.74425e-08
  5.425e-07          5.42288e-08
  5.426e-07          4.86363e-08
  5.427e-07          4.30363e-08
  5.428e-07          3.74289e-08
  5.429e-07          3.18141e-08
  5.43e-07          2.6186e-08
  5.431e-07          2.78173e-08
  5.432e-07          2.94499e-08
  5.433e-07          3.1084e-08
  5.434e-07          3.27279e-08
  5.435e-07          3.4374e-08
  5.436e-07          3.57177e-08
  5.437e-07          3.70538e-08
  5.438e-07          3.83909e-08
  5.439e-07          3.97292e-08
  5.44e-07          4.10688e-08
  5.441e-07          3.49984e-08
  5.442e-07          2.89229e-08
  5.443e-07          2.28422e-08
  5.444e-07          1.67562e-08
  5.445e-07          1.06651e-08
  5.446e-07          1.27424e-08
  5.447e-07          1.48214e-08
  5.448e-07          1.69066e-08
  5.449e-07          1.89946e-08
  5.45e-07          2.10855e-08
  5.451e-07          2.23719e-08
  5.452e-07          2.36592e-08
  5.453e-07          2.49476e-08
  5.454e-07          2.62368e-08
  5.455e-07          2.75272e-08
  5.456e-07          3.01504e-08
  5.457e-07          3.27757e-08
  5.458e-07          3.5403e-08
  5.459e-07          3.80322e-08
  5.46e-07          4.06634e-08
  5.461e-07          4.1037e-08
  5.462e-07          4.14216e-08
  5.463e-07          4.18031e-08
  5.464e-07          4.21849e-08
  5.465e-07          4.25645e-08
  5.466e-07          3.50888e-08
  5.467e-07          2.76061e-08
  5.468e-07          2.01166e-08
  5.469e-07          1.26189e-08
  5.47e-07          5.11582e-09
  5.471e-07          1.7707e-08
  5.472e-07          3.03075e-08
  5.473e-07          4.29174e-08
  5.474e-07          5.55365e-08
  5.475e-07          6.81649e-08
  5.476e-07          6.37217e-08
  5.477e-07          5.9275e-08
  5.478e-07          5.4825e-08
  5.479e-07          5.03717e-08
  5.48e-07          4.59152e-08
  5.481e-07          4.32925e-08
  5.482e-07          4.06678e-08
  5.483e-07          3.80496e-08
  5.484e-07          3.54284e-08
  5.485e-07          3.2804e-08
  5.486e-07          3.98808e-08
  5.487e-07          4.69556e-08
  5.488e-07          5.40354e-08
  5.489e-07          6.11204e-08
  5.49e-07          6.82105e-08
  5.491e-07          6.22833e-08
  5.492e-07          5.63515e-08
  5.493e-07          5.04152e-08
  5.494e-07          4.44917e-08
  5.495e-07          3.85591e-08
  5.496e-07          3.84221e-08
  5.497e-07          3.8285e-08
  5.498e-07          3.81478e-08
  5.499e-07          3.80103e-08
  5.5e-07          3.78727e-08
  5.501e-07          4.48974e-08
  5.502e-07          5.19218e-08
  5.503e-07          5.89457e-08
  5.504e-07          6.59691e-08
  5.505e-07          7.29848e-08
  5.506e-07          6.53513e-08
  5.507e-07          5.77198e-08
  5.508e-07          5.00903e-08
  5.509e-07          4.24629e-08
  5.51e-07          3.48367e-08
  5.511e-07          3.71282e-08
  5.512e-07          3.94193e-08
  5.513e-07          4.17096e-08
  5.514e-07          4.39994e-08
  5.515e-07          4.63043e-08
  5.516e-07          4.25308e-08
  5.517e-07          3.87555e-08
  5.518e-07          3.49787e-08
  5.519e-07          3.11934e-08
  5.52e-07          2.74082e-08
  5.521e-07          3.18968e-08
  5.522e-07          3.6385e-08
  5.523e-07          4.08729e-08
  5.524e-07          4.53604e-08
  5.525e-07          4.98476e-08
  5.526e-07          5.05764e-08
  5.527e-07          5.13053e-08
  5.528e-07          5.2034e-08
  5.529e-07          5.27742e-08
  5.53e-07          5.35146e-08
  5.531e-07          4.88531e-08
  5.532e-07          4.41893e-08
  5.533e-07          3.95248e-08
  5.534e-07          3.48579e-08
  5.535e-07          3.01885e-08
  5.536e-07          2.88819e-08
  5.537e-07          2.75752e-08
  5.538e-07          2.62686e-08
  5.539e-07          2.49618e-08
  5.54e-07          2.36611e-08
  5.541e-07          3.19034e-08
  5.542e-07          4.01491e-08
  5.543e-07          4.83858e-08
  5.544e-07          5.66217e-08
  5.545e-07          6.48569e-08
  5.546e-07          5.93097e-08
  5.547e-07          5.37632e-08
  5.548e-07          4.82171e-08
  5.549e-07          4.26717e-08
  5.55e-07          3.71267e-08
  5.551e-07          3.5948e-08
  5.552e-07          3.47659e-08
  5.553e-07          3.35842e-08
  5.554e-07          3.24206e-08
  5.555e-07          3.1256e-08
  5.556e-07          3.72861e-08
  5.557e-07          4.33016e-08
  5.558e-07          4.93163e-08
  5.559e-07          5.53303e-08
  5.56e-07          6.13437e-08
  5.561e-07          5.67882e-08
  5.562e-07          5.22333e-08
  5.563e-07          4.76791e-08
  5.564e-07          4.31254e-08
  5.565e-07          3.85723e-08
  5.566e-07          4.47148e-08
  5.567e-07          5.08565e-08
  5.568e-07          5.69973e-08
  5.569e-07          6.31372e-08
  5.57e-07          6.92765e-08
  5.571e-07          6.3024e-08
  5.572e-07          5.67869e-08
  5.573e-07          5.05475e-08
  5.574e-07          4.43059e-08
  5.575e-07          3.80522e-08
  5.576e-07          4.3698e-08
  5.577e-07          4.93431e-08
  5.578e-07          5.49827e-08
  5.579e-07          6.06205e-08
  5.58e-07          6.62565e-08
